0.01,3.307,0.01,3.236293564,0.01,2.688040856
0.02,3.297,0.02,3.228219606,0.02,2.690801726
0.03,3.293,0.03,3.22835253,0.03,2.689272692
0.04,3.289,0.04,3.229791787,0.04,2.693454523
0.05,3.284,0.05,3.228273225,0.05,2.682889484
0.06,3.286,0.06,3.232263632,0.06,2.681214072
0.07,3.284,0.07,3.236386843,0.07,2.692213331
0.08,3.288,0.08,3.262515671,0.08,2.72105681
0.09,3.277,0.09,3.251307036,0.09,2.70751964
0.1,3.275,0.1,3.234827503,0.1,2.693086179
0.11,3.286,0.11,3.226222313,0.11,2.692574015
0.12,3.316,0.12,3.219819958,0.12,2.683785427
0.13,3.303,0.13,3.201833041,0.13,2.674487666
0.14,3.289,0.14,3.179623277,0.14,2.666079986
0.15,3.289,0.15,3.159286244,0.15,2.644031899
0.16,3.28,0.16,3.142881801,0.16,2.635382311
0.17,3.269,0.17,3.171835126,0.17,2.668250481
0.18,3.259,0.18,3.256262474,0.18,2.762217963
0.19,3.235,0.19,3.298662777,0.19,2.797387024
0.2,3.224,0.2,3.292867683,0.2,2.791682505
0.21,3.256,0.21,3.260277558,0.21,2.767248459
0.22,3.353,0.22,3.195358613,0.22,2.707056752
0.23,3.393,0.23,3.151032345,0.23,2.670791939
0.24,3.393,0.24,3.15864665,0.24,2.677872821
0.25,3.374,0.25,3.14002352,0.25,2.681964272
0.26,3.316,0.26,3.116948789,0.26,2.674774778
0.27,3.277,0.27,3.100997409,0.27,2.67358905
0.28,3.28,0.28,3.099898281,0.28,2.672057693
0.29,3.28,0.29,3.082327937,0.29,2.657215281
0.3,3.269,0.3,3.061624224,0.3,2.6448796
0.31,3.266,0.31,2.856934266,0.31,2.468798051
0.32,3.264,0.32,2.583843795,0.32,2.208648541
0.33,3.248,0.33,2.715866725,0.33,2.362311599
0.34,3.234,0.34,4.21656138,0.34,3.836573779
0.35,3.05,0.35,4.235915464,0.35,3.820493118
0.36,2.772,0.36,3.06143187,0.36,2.637207079
0.37,2.913,0.37,2.295272531,0.37,1.890815712
0.38,4.43,0.38,2.519958635,0.38,2.128896636
0.39,4.458,0.39,2.890578824,0.39,2.55073295
0.4,3.283,0.4,3.012358351,0.4,2.723185045
0.41,2.528,0.41,2.991200254,0.41,2.704717411
0.42,2.761,0.42,2.974053985,0.42,2.66716196
0.43,3.136,0.43,2.994905686,0.43,2.688566807
0.44,3.265,0.44,3.027091026,0.44,2.710579833
0.45,3.245,0.45,3.03115216,0.45,2.708323328
0.46,3.233,0.46,3.030460355,0.46,2.711154861
0.47,3.273,0.47,3.007694633,0.47,2.694084758
0.48,3.301,0.48,2.971814376,0.48,2.66551274
0.49,3.3,0.49,2.96999233,0.49,2.663100511
0.5,3.305,0.5,2.969161604,0.5,2.656942745
0.51,3.29,0.51,2.949082805,0.51,2.648369403
0.52,3.261,0.52,2.952100748,0.52,2.664711642
0.53,3.257,0.53,2.946880036,0.53,2.652472856
0.54,3.249,0.54,2.96626892,0.54,2.672366406
0.55,3.238,0.55,3.036989819,0.55,2.744258188
0.56,3.253,0.56,3.112042005,0.56,2.814971099
0.57,3.24,0.57,3.186658942,0.57,2.886340048
0.58,3.26,0.58,3.21614361,0.58,2.916747
0.59,3.335,0.59,3.182082591,0.59,2.877948939
0.6,3.412,0.6,3.082667242,0.6,2.77450693
0.61,3.492,0.61,3.009330774,0.61,2.698698127
0.62,3.533,0.62,2.926186043,0.62,2.626720668
0.63,3.503,0.63,2.89823349,0.63,2.616040256
0.64,3.402,0.64,2.870615425,0.64,2.609906056
0.65,3.323,0.65,2.884337305,0.65,2.634468553
0.66,3.242,0.66,2.90095798,0.66,2.651667634
0.67,3.22,0.67,2.912045128,0.67,2.666385707
0.68,3.203,0.68,2.939718279,0.68,2.693256127
0.69,3.221,0.69,2.932678697,0.69,2.682796106
0.7,3.235,0.7,2.926577322,0.7,2.679057897
0.71,3.25,0.71,2.925190587,0.71,2.677823078
0.72,3.279,0.72,2.933452326,0.72,2.680022523
0.73,3.271,0.73,2.951154066,0.73,2.701481901
0.74,3.269,0.74,2.946506191,0.74,2.701616318
0.75,3.269,0.75,2.957558983,0.75,2.705496514
0.76,3.272,0.76,2.950979635,0.76,2.703410133
0.77,3.294,0.77,2.940413623,0.77,2.69471915
0.78,3.295,0.78,2.938829956,0.78,2.68711574
0.79,3.3,0.79,2.959538049,0.79,2.703932906
0.8,3.299,0.8,2.94229245,0.8,2.694296117
0.81,3.291,0.81,2.948493368,0.81,2.691732311
0.82,3.283,0.82,2.954225687,0.82,2.696695672
0.83,3.3,0.83,2.970197623,0.83,2.703114774
0.84,3.29,0.84,2.985396357,0.84,2.721466733
0.85,3.287,0.85,2.964472832,0.85,2.695396636
0.86,3.292,0.86,2.954043064,0.86,2.687502845
0.87,3.299,0.87,2.96860293,0.87,2.692606565
0.88,3.318,0.88,2.971105937,0.88,2.692966255
0.89,3.292,0.89,2.955582027,0.89,2.680526898
0.9,3.284,0.9,2.987274026,0.9,2.701382252
0.91,3.289,0.91,2.986616402,0.91,2.708658886
0.92,3.289,0.92,2.998958217,0.92,2.710046955
0.93,3.275,0.93,2.993937205,0.93,2.693048875
0.94,3.296,0.94,2.964077622,0.94,2.678079419
0.95,3.304,0.95,2.979145869,0.95,2.681762644
0.96,3.306,0.96,2.98267611,0.96,2.695268939
0.97,3.289,0.97,2.986694217,0.97,2.690069862
0.98,3.274,0.98,2.982940165,0.98,2.679651381
0.99,3.277,0.99,2.997862843,0.99,2.690287096
1,3.29,1,3.00562573,1,2.695815159
1.01,3.284,1.01,3.00217849,1.01,2.696781971
1.02,3.273,1.02,2.947476632,1.02,2.635808948
1.03,3.284,1.03,2.935322466,1.03,2.616224456
1.04,3.29,1.04,2.997511462,1.04,2.673013127
1.05,3.291,1.05,3.067349726,1.05,2.740537362
1.06,3.228,1.06,3.109492677,1.06,2.768027995
1.07,3.206,1.07,3.146857986,1.07,2.803706614
1.08,3.262,1.08,3.122971656,1.08,2.764766428
1.09,3.331,1.09,3.070594958,1.09,2.71265432
1.1,3.361,1.1,3.029029073,1.1,2.678339719
1.11,3.403,1.11,3.03338985,1.11,2.672438094
1.12,3.37,1.12,3.02801338,1.12,2.673217936
1.13,3.32,1.13,3.042426029,1.13,2.682591733
1.14,3.284,1.14,3.07021571,1.14,2.709213931
1.15,3.275,1.15,3.047542686,1.15,2.688290667
1.16,3.271,1.16,3.029893591,1.16,2.672616424
1.17,3.277,1.17,2.904284927,1.17,2.544601699
1.18,3.303,1.18,2.645486149,1.18,2.298232806
1.19,3.282,1.19,2.502966773,1.19,2.177893774
1.2,3.266,1.2,3.590185183,1.2,3.245493119
1.21,3.133,1.21,4.239185233,1.21,3.842506326
1.22,2.872,1.22,3.529394684,1.22,3.111406937
1.23,2.731,1.23,2.49799948,1.23,2.079169414
1.24,3.818,1.24,2.452319959,1.24,2.037114661
1.25,4.458,1.25,2.832057256,1.25,2.424614556
1.26,3.749,1.26,3.02684357,1.26,2.663607496
1.27,2.711,1.27,3.032954877,1.27,2.72537882
1.28,2.667,1.28,3.053211612,1.28,2.717911342
1.29,3.026,1.29,3.108821353,1.29,2.723728293
1.3,3.22,1.3,3.110983891,1.3,2.728024725
1.31,3.264,1.31,3.068519068,1.31,2.6915959
1.32,3.277,1.32,3.095908029,1.32,2.69943261
1.33,3.306,1.33,3.096563998,1.33,2.692954805
1.34,3.321,1.34,3.065589055,1.34,2.661726303
1.35,3.287,1.35,3.05096965,1.35,2.644766681
1.36,3.296,1.36,3.063476215,1.36,2.66584661
1.37,3.29,1.37,3.062996779,1.37,2.666296718
1.38,3.257,1.38,3.078706854,1.38,2.662715608
1.39,3.237,1.39,3.102515894,1.39,2.661970699
1.4,3.257,1.4,3.150639099,1.4,2.701013835
1.41,3.256,1.41,3.174950758,1.41,2.735449973
1.42,3.251,1.42,3.218846795,1.42,2.767550848
1.43,3.25,1.43,3.303163608,1.43,2.827080369
1.44,3.291,1.44,3.394774189,1.44,2.883217996
1.45,3.328,1.45,3.387240019,1.45,2.867166435
1.46,3.364,1.46,3.348618698,1.46,2.816144842
1.47,3.43,1.47,3.311002438,1.47,2.742088076
1.48,3.495,1.48,3.236687695,1.48,2.666347649
1.49,3.486,1.49,3.204922686,1.49,2.638309645
1.5,3.439,1.5,3.18831372,1.5,2.61804291
1.51,3.365,1.51,3.19563262,1.51,2.61837452
1.52,3.284,1.52,3.202965596,1.52,2.611500885
1.53,3.247,1.53,3.267507406,1.53,2.655171536
1.54,3.217,1.54,3.318076215,1.54,2.696950579
1.55,3.209,1.55,3.303867813,1.55,2.674403975
1.56,3.196,1.56,3.323560131,1.56,2.683162549
1.57,3.238,1.57,3.347125465,1.57,2.697788459
1.58,3.281,1.58,3.352592719,1.58,2.693048178
1.59,3.26,1.59,3.371664204,1.59,2.693835247
1.6,3.271,1.6,3.358737857,1.6,2.677434187
1.61,3.289,1.61,3.365601797,1.61,2.684176678
1.62,3.286,1.62,3.398680728,1.62,2.705778924
1.63,3.287,1.63,3.421887578,1.63,2.700456509
1.64,3.271,1.64,3.43814553,1.64,2.693423821
1.65,3.278,1.65,3.442022861,1.65,2.683167119
1.66,3.3,1.66,3.454264985,1.66,2.690872824
1.67,3.295,1.67,3.502964491,1.67,2.718367907
1.68,3.288,1.68,3.517097151,1.68,2.709010973
1.69,3.278,1.69,3.549776558,1.69,2.697796353
1.7,3.286,1.7,3.572862522,1.7,2.708779066
1.71,3.314,1.71,3.633126843,1.71,2.710943007
1.72,3.305,1.72,3.623753564,1.72,2.694741961
1.73,3.294,1.73,3.577380867,1.73,2.686537635
1.74,3.306,1.74,3.606150083,1.74,2.681148225
1.75,3.309,1.75,3.54718342,1.75,2.658100542
1.76,3.292,1.76,3.5856848,1.76,2.691005905
1.77,3.283,1.77,3.585769753,1.77,2.703828152
1.78,3.277,1.78,3.527529776,1.78,2.686942396
1.79,3.252,1.79,3.531643844,1.79,2.691655093
1.8,3.284,1.8,3.48540377,1.8,2.654792398
1.81,3.297,1.81,3.452044181,1.81,2.625247526
1.82,3.28,1.82,3.455902382,1.82,2.668655778
1.83,3.285,1.83,3.512799055,1.83,2.729212035
1.84,3.248,1.84,3.557735766,1.84,2.777118444
1.85,3.216,1.85,3.563178151,1.85,2.797741317
1.86,3.258,1.86,3.538580032,1.86,2.775767993
1.87,3.32,1.87,3.446967548,1.87,2.704800888
1.88,3.371,1.88,3.402581365,1.88,2.663627613
1.89,3.397,1.89,3.428144461,1.89,2.687545265
1.9,3.381,1.9,3.413710858,1.9,2.683710402
1.91,3.312,1.91,3.393089091,1.91,2.683451332
1.92,3.269,1.92,3.366102294,1.92,2.669265276
1.93,3.29,1.93,3.363272774,1.93,2.658911317
1.94,3.282,1.94,3.404381627,1.94,2.692128111
1.95,3.278,1.95,3.329382202,1.95,2.628446354
1.96,3.262,1.96,3.112512678,1.96,2.422427948
1.97,3.251,1.97,2.875442833,1.97,2.2004881
1.98,3.284,1.98,3.301402332,1.98,2.641261134
1.99,3.218,1.99,4.56522962,1.99,3.855850942
2,3.002,2,4.325395023,2,3.567342198
2.01,2.762,2.01,3.124719443,2.01,2.383694043
2.02,3.201,2.02,2.756514827,2.02,2.014508432
2.03,4.458,2.03,3.044742326,2.03,2.320410332
2.04,4.205,2.04,3.322924606,2.04,2.622917654
2.05,3.022,2.05,3.353358775,2.05,2.695096224
2.06,2.649,2.06,3.344703322,2.06,2.689209178
2.07,2.946,2.07,3.393898513,2.07,2.708176866
2.08,3.203,2.08,3.401044265,2.08,2.710365031
2.09,3.24,2.09,3.437996061,2.09,2.726166962
2.1,3.242,2.1,3.410353005,2.1,2.702105189
2.11,3.284,2.11,3.416483374,2.11,2.692396293
2.12,3.299,2.12,3.412411581,2.12,2.689317914
2.13,3.319,2.13,3.374483855,2.13,2.654123078
2.14,3.297,2.14,3.382157084,2.14,2.648945199
2.15,3.289,2.15,3.366883975,2.15,2.643258366
2.16,3.286,2.16,3.372425395,2.16,2.643357596
2.17,3.249,2.17,3.395396689,2.17,2.666557633
2.18,3.241,2.18,3.44377234,2.18,2.686657174
2.19,3.233,2.19,3.452338519,2.19,2.714383538
2.2,3.231,2.2,3.508152864,2.2,2.755191271
2.21,3.253,2.21,3.609527037,2.21,2.835741691
2.22,3.274,2.22,3.656631694,2.22,2.884994287
2.23,3.304,2.23,3.657734987,2.23,2.877967832
2.24,3.349,2.24,3.63891291,2.24,2.839207707
2.25,3.437,2.25,3.532578844,2.25,2.749281182
2.26,3.495,2.26,3.470681073,2.26,2.686962444
2.27,3.496,2.27,3.426853367,2.27,2.64652412
2.28,3.463,2.28,3.366745855,2.28,2.614653464
2.29,3.374,2.29,3.356112992,2.29,2.609142459
2.3,3.307,2.3,3.366702288,2.3,2.62601253
2.31,3.258,2.31,3.390072366,2.31,2.653555595
2.32,3.216,2.32,3.405105231,2.32,2.66782013
2.33,3.201,2.33,3.419284123,2.33,2.67908904
2.34,3.212,2.34,3.417245954,2.34,2.687411258
2.35,3.237,2.35,3.410727773,2.35,2.673563145
2.36,3.251,2.36,3.42337158,2.36,2.684185238
2.37,3.264,2.37,3.441927801,2.37,2.709338019
2.38,3.275,2.38,3.446664992,2.38,2.70411014
2.39,3.263,2.39,3.450540001,2.39,2.700389685
2.4,3.275,2.4,3.443482358,2.4,2.694408861
2.41,3.302,2.41,3.421778357,2.41,2.682295067
2.42,3.298,2.42,3.450856982,2.42,2.682198794
2.43,3.295,2.43,3.453128986,2.43,2.686813608
2.44,3.29,2.44,3.457311961,2.44,2.695032527
2.45,3.278,2.45,3.457989833,2.45,2.701818714
2.46,3.277,2.46,3.481084948,2.46,2.711770966
2.47,3.281,2.47,3.47482985,2.47,2.711649985
2.48,3.289,2.48,3.46812117,2.48,2.714527768
2.49,3.296,2.49,3.451727837,2.49,2.70405605
2.5,3.307,2.5,3.450550204,2.5,2.693234224
2.51,3.308,2.51,3.447058858,2.51,2.684172525
2.52,3.312,2.52,3.472008199,2.52,2.699604875
2.53,3.302,2.53,3.44925761,2.53,2.685729082
2.54,3.291,2.54,3.462113425,2.54,2.698056925
2.55,3.281,2.55,3.436242809,2.55,2.681600314
2.56,3.296,2.56,3.405589028,2.56,2.659610464
2.57,3.281,2.57,3.436625633,2.57,2.686224299
2.58,3.293,2.58,3.423138792,2.58,2.667019448
2.59,3.276,2.59,3.378101754,2.59,2.641266188
2.6,3.253,2.6,3.382649458,2.6,2.655422475
2.61,3.279,2.61,3.485208784,2.61,2.719356904
2.62,3.259,2.62,3.518613025,2.62,2.750054048
2.63,3.231,2.63,3.612253363,2.63,2.792327742
2.64,3.244,2.64,3.66305562,2.64,2.802962264
2.65,3.31,2.65,3.593588267,2.65,2.720914657
2.66,3.343,2.66,3.564309875,2.66,2.671093679
2.67,3.39,2.67,3.547486104,2.67,2.681172347
2.68,3.407,2.68,3.496847991,2.68,2.661836786
2.69,3.328,2.69,3.501070592,2.69,2.67869901
2.7,3.277,2.7,3.51316361,2.7,2.698045403
2.71,3.285,2.71,3.521406701,2.71,2.709107405
2.72,3.261,2.72,3.456470262,2.72,2.665089603
2.73,3.273,2.73,3.278046995,2.73,2.464713966
2.74,3.291,2.74,3.010352381,2.74,2.212518946
2.75,3.303,2.75,3.121800879,2.75,2.320600943
2.76,3.258,2.76,4.532461714,2.76,3.687461351
2.77,3.05,2.77,4.714565886,2.77,3.827240097
2.78,2.78,2.78,3.573432499,2.78,2.670948426
2.79,2.873,2.79,2.914547762,2.79,2.020245468
2.8,4.275,2.8,3.121673077,2.8,2.219501726
2.81,4.458,2.81,3.404640218,2.81,2.550380464
2.82,3.311,2.82,3.485391716,2.82,2.677186283
2.83,2.656,2.83,3.52358286,2.83,2.715054867
2.84,2.855,2.84,3.519834486,2.84,2.704622712
2.85,3.145,2.85,3.547052029,2.85,2.707691579
2.86,3.227,2.86,3.544529955,2.86,2.700360466
2.87,3.263,2.87,3.534859067,2.87,2.690292791
2.88,3.275,2.88,3.538823554,2.88,2.693384514
2.89,3.294,2.89,3.534911287,2.89,2.695802351
2.9,3.292,2.9,3.521149821,2.9,2.671816311
2.91,3.284,2.91,3.519869465,2.91,2.670828267
2.92,3.288,2.92,3.515506259,2.92,2.670585049
2.93,3.291,2.93,3.47749843,2.93,2.645466391
2.94,3.266,2.94,3.451341282,2.94,2.623361958
2.95,3.264,2.95,3.479495084,2.95,2.651371234
2.96,3.263,2.96,3.541672602,2.96,2.710144164
2.97,3.236,2.97,3.587148546,2.97,2.75515568
2.98,3.211,2.98,3.661866904,2.98,2.822512097
2.99,3.238,2.99,3.714025504,2.99,2.879531175
3,3.298,3,3.758305458,3,2.900401363
3.01,3.346,3.01,3.719418734,3.01,2.859668157
3.02,3.42,3.02,3.637063326,3.02,2.775624362
3.03,3.487,3.03,3.545396444,3.03,2.699145349
3.04,3.518,3.04,3.483915598,3.04,2.635700961
3.05,3.484,3.05,3.444872588,3.05,2.611659122
3.06,3.402,3.06,3.430387775,3.06,2.605978543
3.07,3.322,3.07,3.440551793,3.07,2.625865397
3.08,3.25,3.08,3.468297518,3.08,2.655882476
3.09,3.215,3.09,3.465019316,3.09,2.663037587
3.1,3.199,3.1,3.481383543,3.1,2.666740077
3.11,3.212,3.11,3.504841174,3.11,2.690879887
3.12,3.239,3.12,3.511372407,3.12,2.697164712
3.13,3.246,3.13,3.503583021,3.13,2.689646662
3.14,3.251,3.14,3.505727785,3.14,2.671993174
3.15,3.278,3.15,3.506571162,3.15,2.685009457
3.16,3.287,3.16,3.516552095,3.16,2.691755105
3.17,3.281,3.17,3.536767357,3.17,2.701469417
3.18,3.264,3.18,3.527914942,3.18,2.704821964
3.19,3.278,3.19,3.508711384,3.19,2.68716896
3.2,3.285,3.2,3.533317368,3.2,2.699551121
3.21,3.295,3.21,3.542050589,3.21,2.706898072
3.22,3.299,3.22,3.528987619,3.22,2.702755224
3.23,3.282,3.23,3.51938161,3.23,2.689264002
3.24,3.295,3.24,3.538674372,3.24,2.705536436
3.25,3.303,3.25,3.552506495,3.25,2.712993265
3.26,3.299,3.26,3.553141345,3.26,2.71177962
3.27,3.285,3.27,3.529110811,3.27,2.687324006
3.28,3.302,3.28,3.512802795,3.28,2.681571425
3.29,3.31,3.29,3.520136258,3.29,2.683399725
3.3,3.309,3.3,3.548719761,3.3,2.704762822
3.31,3.284,3.31,3.545387013,3.31,2.709914222
3.32,3.278,3.32,3.526716869,3.32,2.689880831
3.33,3.279,3.33,3.515312466,3.33,2.681914173
3.34,3.3,3.34,3.52268064,3.34,2.684871926
3.35,3.305,3.35,3.509107505,3.35,2.668246238
3.36,3.285,3.36,3.459692097,3.36,2.625467729
3.37,3.277,3.37,3.445883062,3.37,2.625067924
3.38,3.28,3.38,3.540189493,3.38,2.706414402
3.39,3.262,3.39,3.615267189,3.39,2.775280835
3.4,3.216,3.4,3.653961215,3.4,2.807165229
3.41,3.213,3.41,3.639744092,3.41,2.798441686
3.42,3.295,3.42,3.580476276,3.42,2.737614471
3.43,3.367,3.43,3.531904999,3.43,2.680811216
3.44,3.404,3.44,3.516775913,3.44,2.673014959
3.45,3.402,3.45,3.51509105,3.45,2.663113477
3.46,3.346,3.46,3.490904372,3.46,2.659477691
3.47,3.289,3.47,3.496387313,3.47,2.669561104
3.48,3.278,3.48,3.512299944,3.48,2.682142694
3.49,3.263,3.49,3.498503464,3.49,2.682328254
3.5,3.254,3.5,3.504942136,3.5,2.670402552
3.51,3.261,3.51,3.347953883,3.51,2.520751814
3.52,3.273,3.52,3.090907686,3.52,2.276708103
3.53,3.273,3.53,2.996911421,3.53,2.211121569
3.54,3.261,3.54,4.295256813,3.54,3.482540676
3.55,3.106,3.55,4.699857966,3.55,3.834397988
3.56,2.847,3.56,3.749380657,3.56,2.870991008
3.57,2.763,3.57,2.908412413,3.57,2.035381689
3.58,4.063,3.58,3.024151372,3.58,2.155085507
3.59,4.458,3.59,3.345853307,3.59,2.510529862
3.6,3.509,3.6,3.473959128,3.6,2.678127877
3.61,2.667,3.61,3.507182764,3.61,2.717237628
3.62,2.788,3.62,3.509496662,3.62,2.702434726
3.63,3.109,3.63,3.516851767,3.63,2.684975654
3.64,3.232,3.64,3.526923105,3.64,2.698442111
3.65,3.262,3.65,3.545282722,3.65,2.716617005
3.66,3.269,3.66,3.557900249,3.66,2.726448856
3.67,3.269,3.67,3.523551599,3.67,2.689835118
3.68,3.289,3.68,3.51046927,3.68,2.661261912
3.69,3.31,3.69,3.486712905,3.69,2.645060865
3.7,3.322,3.7,3.452056204,3.7,2.63316773
3.71,3.286,3.71,3.479763305,3.71,2.646356232
3.72,3.257,3.72,3.496378713,3.72,2.660772953
3.73,3.239,3.73,3.513311205,3.73,2.681381086
3.74,3.224,3.74,3.535855479,3.74,2.704432889
3.75,3.234,3.75,3.592436126,3.75,2.749166248
3.76,3.247,3.76,3.658221861,3.76,2.822369285
3.77,3.268,3.77,3.733906842,3.77,2.870983434
3.78,3.293,3.78,3.767446061,3.78,2.899016792
3.79,3.342,3.79,3.739132853,3.79,2.864921246
3.8,3.422,3.8,3.643083623,3.8,2.76416724
3.81,3.479,3.81,3.576551837,3.81,2.702652574
3.82,3.516,3.82,3.523068547,3.82,2.647483518
3.83,3.489,3.83,3.470060889,3.83,2.61040698
3.84,3.39,3.84,3.46569037,3.84,2.607836576
3.85,3.325,3.85,3.466977031,3.85,2.614683373
3.86,3.262,3.86,3.493268785,3.86,2.642313533
3.87,3.214,3.87,3.517021503,3.87,2.675469775
3.88,3.201,3.88,3.537374651,3.88,2.697981053
3.89,3.201,3.89,3.55501877,3.89,2.696945892
3.9,3.225,3.9,3.535846005,3.9,2.685228854
3.91,3.258,3.91,3.546309796,3.91,2.683376252
3.92,3.283,3.92,3.539344651,3.92,2.683683854
3.93,3.285,3.93,3.54345385,3.93,2.68582879
3.94,3.276,3.94,3.527938917,3.94,2.681228473
3.95,3.276,3.95,3.539293674,3.95,2.688047307
3.96,3.277,3.96,3.56833783,3.96,2.707143153
3.97,3.279,3.97,3.54950201,3.97,2.706277239
3.98,3.274,3.98,3.55339425,3.98,2.699700355
3.99,3.281,3.99,3.539344943,3.99,2.687371848
4,3.301,4,3.568465582,4,2.705607373
4.01,3.301,4.01,3.559426099,4.01,2.710391561
4.02,3.295,4.02,3.558158272,4.02,2.708250367
4.03,3.283,4.03,3.554440928,4.03,2.698251528
4.04,3.302,4.04,3.558436165,4.04,2.699740487
4.05,3.307,4.05,3.545611084,4.05,2.684498673
4.06,3.305,4.06,3.534770717,4.06,2.680619572
4.07,3.295,4.07,3.550637236,4.07,2.698053831
4.08,3.297,4.08,3.55683514,4.08,2.706802395
4.09,3.281,4.09,3.548917151,4.09,2.696024438
4.1,3.276,4.1,3.527144973,4.1,2.678313269
4.11,3.293,4.11,3.528432096,4.11,2.687090434
4.12,3.302,4.12,3.542798386,4.12,2.691342222
4.13,3.291,4.13,3.519718585,4.13,2.676503515
4.14,3.273,4.14,3.472826875,4.14,2.621362158
4.15,3.282,4.15,3.455237927,4.15,2.613922152
4.16,3.286,4.16,3.524850165,4.16,2.69970096
4.17,3.27,4.17,3.602775181,4.17,2.764218617
4.18,3.212,4.18,3.635094511,4.18,2.780443567
4.19,3.202,4.19,3.638723633,4.19,2.784189484
4.2,3.288,4.2,3.603498561,4.2,2.751529984
4.21,3.355,4.21,3.556168736,4.21,2.711393772
4.22,3.375,4.22,3.523361506,4.22,2.675096886
4.23,3.385,4.23,3.535078258,4.23,2.685273533
4.24,3.358,4.24,3.522297629,4.24,2.680148601
4.25,3.319,4.25,3.525521307,4.25,2.682087201
4.26,3.28,4.26,3.518614063,4.26,2.681684487
4.27,3.287,4.27,3.509814223,4.27,2.675117509
4.28,3.278,4.28,3.510529914,4.28,2.676769478
4.29,3.277,4.29,3.392814332,4.29,2.559506919
4.3,3.275,4.3,3.163919995,4.3,2.347336056
4.31,3.268,4.31,3.006336336,4.31,2.214537868
4.32,3.269,4.32,4.001599965,4.32,3.1944006
4.33,3.147,4.33,4.696943573,4.33,3.840510113
4.34,2.922,4.34,4.009794188,4.34,3.132077659
4.35,2.771,4.35,2.925704249,4.35,2.067094702
4.36,3.769,4.36,2.879729146,4.36,2.017293967
4.37,4.458,4.37,3.222524682,4.37,2.395129447
4.38,3.772,4.38,3.430030361,4.38,2.649697621
4.39,2.699,4.39,3.484556739,4.39,2.726380756
4.4,2.645,4.4,3.509772487,4.4,2.733977503
4.41,2.995,4.41,3.53917935,4.41,2.738495449
4.42,3.204,4.42,3.515213594,4.42,2.709355291
4.43,3.262,4.43,3.510181363,4.43,2.696160749
4.44,3.291,4.44,3.513049928,4.44,2.707596599
4.45,3.32,4.45,3.507537331,4.45,2.702267363
4.46,3.302,4.46,3.49918697,4.46,2.690465119
4.47,3.292,4.47,3.480164266,4.47,2.664019814
4.48,3.305,4.48,3.464596215,4.48,2.657497359
4.49,3.3,4.49,3.450906959,4.49,2.654630351
4.5,3.287,4.5,3.439103027,4.5,2.633454377
4.51,3.259,4.51,3.457996834,4.51,2.661831974
4.52,3.251,4.52,3.474469145,4.52,2.684364316
4.53,3.246,4.53,3.526368997,4.53,2.736621856
4.54,3.222,4.54,3.596109544,4.54,2.792495217
4.55,3.249,4.55,3.655811964,4.55,2.842396527
4.56,3.272,4.56,3.717142144,4.56,2.896958626
4.57,3.327,4.57,3.684490767,4.57,2.868105997
4.58,3.388,4.58,3.619831402,4.58,2.799585571
4.59,3.446,4.59,3.532226368,4.59,2.716336309
4.6,3.51,4.6,3.448054711,4.6,2.638258331
4.61,3.489,4.61,3.415784503,4.61,2.614741529
4.62,3.424,4.62,3.390043568,4.62,2.615804256
4.63,3.339,4.63,3.425039865,4.63,2.653404167
4.64,3.254,4.64,3.422276376,4.64,2.658859451
4.65,3.22,4.65,3.423266827,4.65,2.660193852
4.66,3.211,4.66,3.443334924,4.66,2.676638711
4.67,3.242,4.67,3.447448709,4.67,2.67957308
4.68,3.244,4.68,3.439581924,4.68,2.680561601
4.69,3.245,4.69,3.451336069,4.69,2.684439681
4.7,3.263,4.7,3.463168153,4.7,2.702628396
4.71,3.268,4.71,3.456438958,4.71,2.705327398
4.72,3.27,4.72,3.435182738,4.72,2.677219814
4.73,3.275,4.73,3.429348979,4.73,2.682962456
4.74,3.295,4.74,3.438552909,4.74,2.702161649
4.75,3.299,4.75,3.434997837,4.75,2.691490163
4.76,3.271,4.76,3.42946447,4.76,2.695820763
4.77,3.277,4.77,3.411407716,4.77,2.687420235
4.78,3.297,4.78,3.413369081,4.78,2.694946721
4.79,3.286,4.79,3.4312211,4.79,2.707731653
4.8,3.29,4.8,3.415675571,4.8,2.702299021
4.81,3.282,4.81,3.41182776,4.81,2.703938757
4.82,3.29,4.82,3.400938923,4.82,2.695574681
4.83,3.303,4.83,3.378967585,4.83,2.674295363
4.84,3.298,4.84,3.405722572,4.84,2.713076866
4.85,3.3,4.85,3.384543081,4.85,2.70497031
4.86,3.292,4.86,3.364934554,4.86,2.687589755
4.87,3.27,4.87,3.363838331,4.87,2.685023336
4.88,3.309,4.88,3.366301163,4.88,2.68465366
4.89,3.301,4.89,3.357491109,4.89,2.68956017
4.9,3.283,4.9,3.287445683,4.9,2.639095473
4.91,3.28,4.91,3.284401967,4.91,2.62747877
4.92,3.28,4.92,3.326344396,4.92,2.671197311
4.93,3.284,4.93,3.389661036,4.93,2.746141184
4.94,3.231,4.94,3.445841976,4.94,2.793399736
4.95,3.217,4.95,3.434947994,4.95,2.793513893
4.96,3.26,4.96,3.377799347,4.96,2.740839714
4.97,3.337,4.97,3.338608005,4.97,2.68758926
4.98,3.388,4.98,3.328200936,4.98,2.689127298
4.99,3.394,4.99,3.316158099,4.99,2.693489186
5,3.346,5,3.298821007,5,2.672021848
5.01,3.294,5.01,3.291647426,5.01,2.680596975
5.02,3.294,5.02,3.304366749,5.02,2.688029731
5.03,3.295,5.03,3.291966244,5.03,2.67882774
5.04,3.269,5.04,3.276971914,5.04,2.673880516
5.05,3.275,5.05,3.153666056,5.05,2.567964393
5.06,3.282,5.06,2.917405835,5.06,2.342864934
5.07,3.272,5.07,2.717506753,5.07,2.156490423
5.08,3.266,5.08,3.595736164,5.08,3.03360467
5.09,3.156,5.09,4.456582626,5.09,3.848591857
5.1,2.918,5.1,3.832406282,5.1,3.2070024
5.11,2.711,5.11,2.829611328,5.11,2.210736751
5.12,3.6,5.12,2.72967693,5.12,2.110241893
5.13,4.458,5.13,3.059409048,5.13,2.452363646
5.14,3.841,5.14,3.206610539,5.14,2.651330841
5.15,2.842,5.15,3.235839011,5.15,2.700034801
5.16,2.743,5.16,3.278911164,5.16,2.722023941
5.17,3.066,5.17,3.285707113,5.17,2.713924925
5.18,3.22,5.18,3.273340996,5.18,2.6987976
5.19,3.247,5.19,3.276352036,5.19,2.691439781
5.2,3.285,5.2,3.251324492,5.2,2.669816416
5.21,3.297,5.21,3.271363452,5.21,2.685993441
5.22,3.29,5.22,3.256976169,5.22,2.685645975
5.23,3.285,5.23,3.252912174,5.23,2.680263928
5.24,3.264,5.24,3.231695393,5.24,2.656604293
5.25,3.28,5.25,3.223275695,5.25,2.641756247
5.26,3.279,5.26,3.219663839,5.26,2.653128156
5.27,3.273,5.27,3.226531289,5.27,2.656396376
5.28,3.248,5.28,3.267539238,5.28,2.685402763
5.29,3.232,5.29,3.316411958,5.29,2.730767592
5.3,3.242,5.3,3.383710585,5.3,2.792129792
5.31,3.244,5.31,3.461960686,5.31,2.871673722
5.32,3.273,5.32,3.508347792,5.32,2.902804022
5.33,3.321,5.33,3.476766386,5.33,2.865060806
5.34,3.388,5.34,3.401982986,5.34,2.793499044
5.35,3.476,5.35,3.330838352,5.35,2.723919432
5.36,3.517,5.36,3.249083295,5.36,2.64660664
5.37,3.487,5.37,3.184879049,5.37,2.596032826
5.38,3.419,5.38,3.197220283,5.38,2.616020608
5.39,3.348,5.39,3.211982159,5.39,2.64283472
5.4,3.263,5.4,3.214152738,5.4,2.645159999
5.41,3.201,5.41,3.224740678,5.41,2.656039785
5.42,3.211,5.42,3.243543371,5.42,2.677795214
5.43,3.231,5.43,3.262020632,5.43,2.691335107
5.44,3.229,5.44,3.249198189,5.44,2.683818778
5.45,3.239,5.45,3.2379364,5.45,2.675477886
5.46,3.263,5.46,3.224685802,5.46,2.666784409
5.47,3.279,5.47,3.243820065,5.47,2.681419113
5.48,3.273,5.48,3.269837492,5.48,2.714408781
5.49,3.266,5.49,3.258901911,5.49,2.711257045
5.5,3.258,5.5,3.248225178,5.5,2.698283124
5.51,3.273,5.51,3.252578995,5.51,2.710505091
5.52,3.307,5.52,3.240461668,5.52,2.701559099
5.53,3.305,5.53,3.230331108,5.53,2.693175238
5.54,3.293,5.54,3.218886992,5.54,2.688898601
5.55,3.307,5.55,3.220437555,5.55,2.694967886
5.56,3.299,5.56,3.226934332,5.56,2.70229557
5.57,3.29,5.57,3.212299843,5.57,2.690768619
5.58,3.285,5.58,3.21912019,5.58,2.690913277
5.59,3.291,5.59,3.233360967,5.59,2.70629619
5.6,3.298,5.6,3.238318826,5.6,2.709754506
5.61,3.286,5.61,3.242764802,5.61,2.711396405
5.62,3.286,5.62,3.224278735,5.62,2.69325116
5.63,3.302,5.63,3.203024805,5.63,2.672861416
5.64,3.306,5.64,3.199637115,5.64,2.670195774
5.65,3.308,5.65,3.213328046,5.65,2.687098986
5.66,3.29,5.66,3.208203565,5.66,2.689044929
5.67,3.269,5.67,3.14829576,5.67,2.626690101
5.68,3.265,5.68,3.14873522,5.68,2.626637439
5.69,3.281,5.69,3.219446545,5.69,2.696870729
5.7,3.282,5.7,3.292005756,5.7,2.760312656
5.71,3.217,5.71,3.329694889,5.71,2.79153736
5.72,3.215,5.72,3.316520075,5.72,2.777681719
5.73,3.286,5.73,3.27726441,5.73,2.738000939
5.74,3.352,5.74,3.252943506,5.74,2.71178985
5.75,3.387,5.75,3.226886903,5.75,2.683094177
5.76,3.379,5.76,3.21976476,5.76,2.677035612
5.77,3.344,5.77,3.221570277,5.77,2.683584908
5.78,3.319,5.78,3.211123171,5.78,2.671411852
5.79,3.288,5.79,3.197119766,5.79,2.665623139
5.8,3.278,5.8,3.20890973,5.8,2.678274138
5.81,3.281,5.81,3.221835054,5.81,2.688202677
5.82,3.266,5.82,3.07630576,5.82,2.544632117
5.83,3.258,5.83,2.822815515,5.83,2.305652936
5.84,3.27,5.84,2.672847143,5.84,2.166112446
5.85,3.28,5.85,3.773953977,5.85,3.244309252
5.86,3.131,5.86,4.408270325,5.86,3.842830954
5.87,2.878,5.87,3.642561927,5.87,3.058648698
5.88,2.719,5.88,2.712178889,5.88,2.127890463
5.89,3.817,5.89,2.718798025,5.89,2.134752041
5.9,4.458,5.9,3.041617928,5.9,2.465566327
5.91,3.694,5.91,3.182565257,5.91,2.648923383
5.92,2.759,5.92,3.205987125,5.92,2.69650718
5.93,2.768,5.93,3.241245496,5.93,2.702198675
5.94,3.072,5.94,3.263845694,5.94,2.705369
5.95,3.21,5.95,3.286926538,5.95,2.715882654
5.96,3.241,5.96,3.291708531,5.96,2.720117338
5.97,3.265,5.97,3.261411815,5.97,2.688558352
5.98,3.287,5.98,3.247363225,5.98,2.67051501
5.99,3.306,5.99,3.23709227,5.99,2.660664907
6,3.314,6,3.240718982,6,2.664435325
6.01,3.284,6.01,3.24482726,6.01,2.665538945
6.02,3.266,6.02,3.229724241,6.02,2.654989545
6.03,3.255,6.03,3.234875632,6.03,2.664460527
6.04,3.257,6.04,3.24694218,6.04,2.674170889
6.05,3.256,6.05,3.27056883,6.05,2.691305274
6.06,3.244,6.06,3.309877133,6.06,2.736669037
6.07,3.253,6.07,3.382160558,6.07,2.802030225
6.08,3.263,6.08,3.444340272,6.08,2.857441641
6.09,3.281,6.09,3.487942952,6.09,2.889729418
6.1,3.329,6.1,3.466801153,6.1,2.870092865
6.11,3.4,6.11,3.394668884,6.11,2.791895051
6.12,3.463,6.12,3.305435873,6.12,2.708369348
6.13,3.504,6.13,3.231573748,6.13,2.643728281
6.14,3.492,6.14,3.192858722,6.14,2.61981365
6.15,3.417,6.15,3.172027957,6.15,2.618879096
6.16,3.331,6.16,3.172891123,6.16,2.626237655
6.17,3.259,6.17,3.180958687,6.17,2.646868713
6.18,3.225,6.18,3.179474262,6.18,2.650781135
6.19,3.214,6.19,3.210532394,6.19,2.680337909
6.2,3.214,6.2,3.216810095,6.2,2.691025066
6.21,3.231,6.21,3.203423634,6.21,2.683891097
6.22,3.234,6.22,3.213044544,6.22,2.696827661
6.23,3.265,6.23,3.203193911,6.23,2.693905372
6.24,3.278,6.24,3.193401995,6.24,2.695036228
6.25,3.273,6.25,3.189163545,6.25,2.696566172
6.26,3.288,6.26,3.169869962,6.26,2.680491444
6.27,3.287,6.27,3.163572736,6.27,2.686743468
6.28,3.289,6.28,3.167901618,6.28,2.694670128
6.29,3.291,6.29,3.180400068,6.29,2.715876189
6.3,3.275,6.3,3.138016168,6.3,2.685278857
6.31,3.281,6.31,3.122804428,6.31,2.676420763
6.32,3.289,6.32,3.146287491,6.32,2.712438793
6.33,3.311,6.33,3.145160891,6.33,2.716571221
6.34,3.28,6.34,3.131173896,6.34,2.713616382
6.35,3.271,6.35,3.10921309,6.35,2.703856337
6.36,3.308,6.36,3.09533412,6.36,2.70179955
6.37,3.313,6.37,3.083051724,6.37,2.695340632
6.38,3.31,6.38,3.060567642,6.38,2.68257069
6.39,3.301,6.39,3.055241636,6.39,2.693330263
6.4,3.3,6.4,3.04244403,6.4,2.686054102
6.41,3.293,6.41,3.032850161,6.41,2.682888015
6.42,3.279,6.42,3.013614906,6.42,2.676720898
6.43,3.289,6.43,3.007972504,6.43,2.678971889
6.44,3.281,6.44,3.011666292,6.44,2.692117986
6.45,3.277,6.45,2.98697397,6.45,2.676554317
6.46,3.27,6.46,2.948617659,6.46,2.643110043
6.47,3.272,6.47,2.918004684,6.47,2.630913192
6.48,3.285,6.48,2.970898822,6.48,2.690619144
6.49,3.269,6.49,3.034654586,6.49,2.765024487
6.5,3.234,6.5,3.079586398,6.5,2.811015066
6.51,3.22,6.51,3.078486576,6.51,2.806658024
6.52,3.28,6.52,3.00214262,6.52,2.738088891
6.53,3.357,6.53,2.931849508,6.53,2.673030289
6.54,3.408,6.54,2.902311464,6.54,2.660338545
6.55,3.41,6.55,2.899256894,6.55,2.671291262
6.56,3.346,6.56,2.915684454,6.56,2.69561009
6.57,3.281,6.57,2.886495954,6.57,2.681228848
6.58,3.265,6.58,2.862178995,6.58,2.665099217
6.59,3.271,6.59,2.873928005,6.59,2.681768921
6.6,3.291,6.6,2.872703583,6.6,2.686477323
6.61,3.274,6.61,2.739549676,6.61,2.564509796
6.62,3.257,6.62,2.48399754,6.62,2.326027139
6.63,3.274,6.63,2.275359476,6.63,2.149993813
6.64,3.279,6.64,3.356332484,6.64,3.226946639
6.65,3.152,6.65,4.009918573,6.65,3.842425578
6.66,2.9,6.66,3.260698334,6.66,3.081174396
6.67,2.704,6.67,2.270904777,6.67,2.106053413
6.68,3.8,6.68,2.247250254,6.68,2.086213887
6.69,4.458,6.69,2.605393241,6.69,2.473186645
6.7,3.717,6.7,2.760539399,6.7,2.675604995
6.71,2.736,6.71,2.774486839,6.71,2.719240387
6.72,2.717,6.72,2.781412115,6.72,2.704994113
6.73,3.078,6.73,2.787820668,6.73,2.68884901
6.74,3.236,6.74,2.802810854,6.74,2.705899035
6.75,3.263,6.75,2.801631857,6.75,2.705617727
6.76,3.268,6.76,2.801912558,6.76,2.704316394
6.77,3.272,6.77,2.778787767,6.77,2.684880248
6.78,3.297,6.78,2.758390599,6.78,2.672054802
6.79,3.299,6.79,2.757794764,6.79,2.676028602
6.8,3.299,6.8,2.713285439,6.8,2.634669197
6.81,3.28,6.81,2.724026277,6.81,2.649839934
6.82,3.267,6.82,2.724623008,6.82,2.658069996
6.83,3.27,6.83,2.731143036,6.83,2.668471405
6.84,3.226,6.84,2.767482475,6.84,2.702720477
6.85,3.239,6.85,2.807495162,6.85,2.742779262
6.86,3.246,6.86,2.85720624,6.86,2.788467039
6.87,3.256,6.87,2.913995264,6.87,2.842200977
6.88,3.291,6.88,2.955600756,6.88,2.876737609
6.89,3.335,6.89,2.938007565,6.89,2.852188004
6.9,3.386,6.9,2.887986293,6.9,2.797102113
6.91,3.447,6.91,2.827667043,6.91,2.73995077
6.92,3.49,6.92,2.759216726,6.92,2.678432923
6.93,3.472,6.93,2.697516079,6.93,2.622833008
6.94,3.42,6.94,2.661294859,6.94,2.599781764
6.95,3.362,6.95,2.666739021,6.95,2.615565086
6.96,3.295,6.96,2.68229491,6.96,2.637643001
6.97,3.23,6.97,2.694284836,6.97,2.651864902
6.98,3.197,6.98,2.724070249,6.98,2.674859916
6.99,3.205,6.99,2.744013028,6.99,2.691930811
7,3.222,7,2.73956901,7,2.683507096
7.01,3.234,7.01,2.74195343,7.01,2.691334316
7.02,3.258,7.02,2.741780898,7.02,2.688629384
7.03,3.278,7.03,2.735815299,7.03,2.677192672
7.04,3.272,7.04,2.761402538,7.04,2.705432737
7.05,3.282,7.05,2.774917162,7.05,2.711203064
7.06,3.281,7.06,2.779392443,7.06,2.71322991
7.07,3.27,7.07,2.773788691,7.07,2.703543679
7.08,3.299,7.08,2.766263911,7.08,2.696669434
7.09,3.306,7.09,2.756276616,7.09,2.684317855
7.1,3.309,7.1,2.763994067,7.1,2.683292858
7.11,3.3,7.11,2.773120761,7.11,2.697872527
7.12,3.294,7.12,2.779271843,7.12,2.701020119
7.13,3.281,7.13,2.760190481,7.13,2.680710876
7.14,3.279,7.14,2.775316764,7.14,2.697311032
7.15,3.293,7.15,2.789039596,7.15,2.708404238
7.16,3.296,7.16,2.786198529,7.16,2.703190075
7.17,3.275,7.17,2.804101483,7.17,2.714650749
7.18,3.292,7.18,2.792301264,7.18,2.696960425
7.19,3.304,7.19,2.78100967,7.19,2.68628338
7.2,3.299,7.2,2.775211371,7.2,2.677402658
7.21,3.311,7.21,2.788494518,7.21,2.685087129
7.22,3.294,7.22,2.789087023,7.22,2.686211966
7.23,3.283,7.23,2.787321534,7.23,2.681902171
7.24,3.273,7.24,2.814093924,7.24,2.702433025
7.25,3.28,7.25,2.75435373,7.25,2.639915869
7.26,3.28,7.26,2.73465708,7.26,2.620443759
7.27,3.275,7.27,2.790844022,7.27,2.672124638
7.28,3.296,7.28,2.866970937,7.28,2.737210888
7.29,3.232,7.29,2.930828198,7.29,2.791977944
7.3,3.21,7.3,2.956544751,7.3,2.807622875
7.31,3.261,7.31,2.908910232,7.31,2.756117833
7.32,3.328,7.32,2.8431814,7.32,2.682086932
7.33,3.386,7.33,2.827370511,7.33,2.660344372
7.34,3.408,7.34,2.854513079,7.34,2.686880731
7.35,3.362,7.35,2.852818022,7.35,2.688342299
7.36,3.289,7.36,2.861320178,7.36,2.692106876
7.37,3.265,7.37,2.846287826,7.37,2.676796846
7.38,3.288,7.38,2.850565654,7.38,2.677574585
7.39,3.285,7.39,2.863597575,7.39,2.687827293
7.4,3.286,7.4,2.789047461,7.4,2.606047596
7.41,3.27,7.41,2.599872644,7.41,2.42327858
7.42,3.271,7.42,2.353880795,7.42,2.194844952
7.43,3.281,7.43,2.988277342,7.43,2.816801864
7.44,3.196,7.44,4.067054466,7.44,3.850300072
7.45,3.003,7.45,3.668457484,7.45,3.417377384
7.46,2.756,7.46,2.522757026,7.46,2.26514335
7.47,3.382,7.47,2.274444581,7.47,2.018674441
7.48,4.458,7.48,2.591186579,7.48,2.343670066
7.49,4.056,7.49,2.819907953,7.49,2.612935142
7.5,2.9,7.5,2.881118766,7.5,2.698746796
7.51,2.65,7.51,2.905344617,7.51,2.70291746
7.52,2.96,7.52,2.937271051,7.52,2.703104306
7.53,3.183,7.53,2.957079679,7.53,2.708875535
7.54,3.239,7.54,2.973503371,7.54,2.721129623
7.55,3.256,7.55,2.961038356,7.55,2.700102399
7.56,3.279,7.56,2.960679308,7.56,2.690975482
7.57,3.297,7.57,2.974279283,7.57,2.695499126
7.58,3.314,7.58,2.962348484,7.58,2.676401204
7.59,3.295,7.59,2.940281481,7.59,2.646116178
7.6,3.287,7.6,2.93612642,7.6,2.643319379
7.61,3.292,7.61,2.95230736,7.61,2.65487228
7.62,3.272,7.62,2.965153633,7.62,2.659505907
7.63,3.239,7.63,2.998160478,7.63,2.690296168
7.64,3.234,7.64,3.054656063,7.64,2.738044416
7.65,3.244,7.65,3.116677575,7.65,2.781840894
7.66,3.247,7.66,3.194765983,7.66,2.844468154
7.67,3.278,7.67,3.256043838,7.67,2.887318573
7.68,3.329,7.68,3.241415257,7.68,2.866756519
7.69,3.378,7.69,3.197907485,7.69,2.80898429
7.7,3.448,7.7,3.133106098,7.7,2.732758555
7.71,3.5,7.71,3.052728864,7.71,2.653177328
7.72,3.487,7.72,3.010656219,7.72,2.616188657
7.73,3.433,7.73,3.003205934,7.73,2.61417541
7.74,3.356,7.74,3.015645191,7.74,2.6299301
7.75,3.27,7.75,3.038065108,7.75,2.647433071
7.76,3.223,7.76,3.065764943,7.76,2.669058806
7.77,3.211,7.77,3.079922633,7.77,2.673761137
7.78,3.219,7.78,3.081299645,7.78,2.672024794
7.79,3.232,7.79,3.10073944,7.79,2.67924943
7.8,3.253,7.8,3.099976528,7.8,2.675052522
7.81,3.259,7.81,3.121182898,7.81,2.687147642
7.82,3.259,7.82,3.151937461,7.82,2.707665224
7.83,3.268,7.83,3.154413605,7.83,2.705219817
7.84,3.265,7.84,3.171253968,7.84,2.708918952
7.85,3.278,7.85,3.148013989,7.85,2.681481563
7.86,3.3,7.86,3.15983635,7.86,2.693077892
7.87,3.299,7.87,3.183438758,7.87,2.705040875
7.88,3.304,7.88,3.181369504,7.88,2.700151883
7.89,3.277,7.89,3.185563722,7.89,2.703337253
7.9,3.289,7.9,3.179058118,7.9,2.690972587
7.91,3.301,7.91,3.204834607,7.91,2.704535938
7.92,3.296,7.92,3.217178076,7.92,2.709356234
7.93,3.299,7.93,3.197287319,7.93,2.693574714
7.94,3.287,7.94,3.204050409,7.94,2.692936685
7.95,3.301,7.95,3.2026977,7.95,2.686113531
7.96,3.306,7.96,3.217312009,7.96,2.697402294
7.97,3.29,7.97,3.211235628,7.97,2.688237524
7.98,3.289,7.98,3.219526299,7.98,2.688491172
7.99,3.282,7.99,3.218020437,7.99,2.681961268
8,3.293,8,3.231948679,8,2.696633828
8.01,3.283,8.01,3.227530255,8.01,2.687070417
8.02,3.283,8.02,3.188217191,8.02,2.64762604
8.03,3.276,8.03,3.17151777,8.03,2.623153884
8.04,3.291,8.04,3.24522272,8.04,2.693857651
8.05,3.281,8.05,3.315776574,8.05,2.756768645
8.06,3.24,8.06,3.345125129,8.06,2.788062761
8.07,3.213,8.07,3.364151818,8.07,2.793464793
8.08,3.284,8.08,3.31476078,8.08,2.730002613
8.09,3.349,8.09,3.270785379,8.09,2.693405734
8.1,3.384,8.1,3.249216042,8.1,2.666248915
8.11,3.395,8.11,3.25752764,8.11,2.67229625
8.12,3.336,8.12,3.257567326,8.12,2.681574965
8.13,3.3,8.13,3.254203493,8.13,2.680826161
8.14,3.27,8.14,3.256634872,8.14,2.677916533
8.15,3.272,8.15,3.252675828,8.15,2.67213232
8.16,3.277,8.16,3.2553083,8.16,2.67242016
8.17,3.274,8.17,3.11911914,8.17,2.539881357
8.18,3.27,8.18,2.868137284,8.18,2.295589957
8.19,3.264,8.19,2.787818369,8.19,2.231100742
8.2,3.264,8.2,4.047740325,8.2,3.470552908
8.21,3.126,8.21,4.461162889,8.21,3.832513102
8.22,2.867,8.22,3.47609042,8.22,2.831274639
8.23,2.785,8.23,2.690065565,8.23,2.054700485
8.24,4.053,8.24,2.814609404,8.24,2.172592668
8.25,4.458,8.25,3.127582401,8.25,2.514534962
8.26,3.469,8.26,3.250510925,8.26,2.682954604
8.27,2.686,8.27,3.280120282,8.27,2.708859501
8.28,2.805,8.28,3.29376228,8.28,2.701743981
8.29,3.113,8.29,3.319410825,8.29,2.70996157
8.3,3.237,8.3,3.33792775,8.3,2.713961032
8.31,3.255,8.31,3.331189546,8.31,2.703753382
8.32,3.269,8.32,3.325633034,8.32,2.696411151
8.33,3.295,8.33,3.317445766,8.33,2.681115382
8.34,3.306,8.34,3.317826062,8.34,2.676944034
8.35,3.298,8.35,3.28274787,8.35,2.645403679
8.36,3.292,8.36,3.286048215,8.36,2.653355485
8.37,3.277,8.37,3.29431534,8.37,2.660875787
8.38,3.272,8.38,3.285852445,8.38,2.652217779
8.39,3.238,8.39,3.31870996,8.39,2.68229553
8.4,3.244,8.4,3.347201606,8.4,2.705234523
8.41,3.25,8.41,3.374491102,8.41,2.732308698
8.42,3.24,8.42,3.463956238,8.42,2.81152643
8.43,3.27,8.43,3.544745797,8.43,2.87863184
8.44,3.295,8.44,3.572167499,8.44,2.894921409
8.45,3.325,8.45,3.526319785,8.45,2.839878011
8.46,3.41,8.46,3.457348053,8.46,2.764540714
8.47,3.486,8.47,3.388506494,8.47,2.693951724
8.48,3.511,8.48,3.335912883,8.48,2.643257289
8.49,3.462,8.49,3.306277779,8.49,2.62260429
8.5,3.389,8.5,3.281367257,8.5,2.60612722
8.51,3.315,8.51,3.291301485,8.51,2.62072228
8.52,3.256,8.52,3.3316724,8.52,2.65162719
8.53,3.225,8.53,3.347028256,8.53,2.669745797
8.54,3.199,8.54,3.359354422,8.54,2.679342906
8.55,3.207,8.55,3.367722348,8.55,2.676991052
8.56,3.235,8.56,3.388873926,8.56,2.689381666
8.57,3.253,8.57,3.38709379,8.57,2.685860009
8.58,3.264,8.58,3.409617312,8.58,2.700412211
8.59,3.264,8.59,3.409584892,8.59,2.696472186
8.6,3.279,8.6,3.417191588,8.6,2.696493893
8.61,3.277,8.61,3.427390696,8.61,2.702806031
8.62,3.293,8.62,3.433537786,8.62,2.707827489
8.63,3.29,8.63,3.420559265,8.63,2.693937402
8.64,3.291,8.64,3.409464378,8.64,2.68044231
8.65,3.298,8.65,3.425281211,8.65,2.69543862
8.66,3.304,8.66,3.434410344,8.66,2.700511069
8.67,3.29,8.67,3.442961159,8.67,2.710443544
8.68,3.276,8.68,3.45014163,8.68,2.706976172
8.69,3.291,8.69,3.456579545,8.69,2.712743913
8.7,3.296,8.7,3.44463635,8.7,2.698561931
8.71,3.306,8.71,3.447293652,8.71,2.696631909
8.72,3.303,8.72,3.470946505,8.72,2.714413989
8.73,3.31,8.73,3.435065834,8.73,2.680355195
8.74,3.296,8.74,3.450449617,8.74,2.696007116
8.75,3.294,8.75,3.455754978,8.75,2.696150028
8.76,3.312,8.76,3.436207248,8.76,2.675981641
8.77,3.277,8.77,3.440454908,8.77,2.684214983
8.78,3.292,8.78,3.450423853,8.78,2.687066822
8.79,3.292,8.79,3.447295353,8.79,2.682647452
8.8,3.271,8.8,3.390477348,8.8,2.623471444
8.81,3.278,8.81,3.377374434,8.81,2.616851414
8.82,3.281,8.82,3.443955232,8.82,2.679244333
8.83,3.276,8.83,3.519254754,8.83,2.750119964
8.84,3.214,8.84,3.562614424,8.84,2.788308397
8.85,3.205,8.85,3.578965668,8.85,2.798623846
8.86,3.267,8.86,3.535035718,8.86,2.750151155
8.87,3.34,8.87,3.49172448,8.87,2.703541461
8.88,3.382,8.88,3.4774468,8.88,2.680479153
8.89,3.399,8.89,3.474000919,8.89,2.678162583
8.9,3.356,8.9,3.465254285,8.9,2.674764066
8.91,3.311,8.91,3.458274465,8.91,2.672027625
8.92,3.286,8.92,3.469492603,8.92,2.68715268
8.93,3.28,8.93,3.488087969,8.93,2.698938065
8.94,3.272,8.94,3.480934697,8.94,2.695616297
8.95,3.266,8.95,3.403876498,8.95,2.617895368
8.96,3.28,8.96,3.189083211,8.96,2.405975088
8.97,3.292,8.97,2.938897099,8.97,2.177514632
8.98,3.289,8.98,3.488440903,8.98,2.724702899
8.99,3.209,8.99,4.65980444,8.99,3.854484799
9,2.987,9,4.337646035,9,3.494328188
9.01,2.739,9.01,3.136240662,9.01,2.29544794
9.02,3.286,9.02,2.836870984,9.02,1.99620554
9.03,4.458,9.03,3.154884242,9.03,2.327206215
9.04,4.131,9.04,3.39485529,9.04,2.610457744
9.05,2.93,9.05,3.453273059,9.05,2.698995
9.06,2.627,9.06,3.4819257,9.06,2.710043645
9.07,2.946,9.07,3.528258681,9.07,2.725564905
9.08,3.183,9.08,3.536528315,9.08,2.713612052
9.09,3.239,9.09,3.531731598,9.09,2.696733384
9.1,3.262,9.1,3.53041723,9.1,2.69873663
9.11,3.302,9.11,3.525158387,9.11,2.69371614
9.12,3.303,9.12,3.531140976,9.12,2.698969846
9.13,3.29,9.13,3.508130158,9.13,2.671310207
9.14,3.294,9.14,3.483592727,9.14,2.651935051
9.15,3.29,9.15,3.486664912,9.15,2.656595471
9.16,3.295,9.16,3.484080026,9.16,2.649439661
9.17,3.266,9.17,3.497336797,9.17,2.661109301
9.18,3.245,9.18,3.523603389,9.18,2.681004724
9.19,3.248,9.19,3.576264729,9.19,2.728330864
9.2,3.239,9.2,3.63059778,9.2,2.776852894
9.21,3.249,9.21,3.69746984,9.21,2.83662448
9.22,3.269,9.22,3.768774194,9.22,2.894332331
9.23,3.319,9.23,3.757668706,9.23,2.876120294
9.24,3.372,9.24,3.700347271,9.24,2.807059399
9.25,3.439,9.25,3.628311922,9.25,2.733579414
9.26,3.506,9.26,3.569717245,9.26,2.678692891
9.27,3.496,9.27,3.526868072,9.27,2.639983394
9.28,3.431,9.28,3.485355585,9.28,2.609407505
9.29,3.357,9.29,3.50681504,9.29,2.62808525
9.3,3.297,9.3,3.512818994,9.3,2.639835077
9.31,3.249,9.31,3.52315721,9.31,2.650126061
9.32,3.208,9.32,3.536408113,9.32,2.663206318
9.33,3.219,9.33,3.535179261,9.33,2.657939686
9.34,3.226,9.34,3.543133688,9.34,2.668636486
9.35,3.234,9.35,3.550512893,9.35,2.674333025
9.36,3.247,9.36,3.578123427,9.36,2.693560181
9.37,3.243,9.37,3.593289064,9.37,2.711537133
9.38,3.255,9.38,3.598601576,9.38,2.709367608
9.39,3.262,9.39,3.597193707,9.39,2.702811213
9.4,3.283,9.4,3.592166973,9.4,2.698612281
9.41,3.303,9.41,3.593614565,9.41,2.702029426
9.42,3.303,9.42,3.604255803,9.42,2.710849057
9.43,3.298,9.43,3.578829865,9.43,2.683682924
9.44,3.295,9.44,3.581752123,9.44,2.692043143
9.45,3.299,9.45,3.595216586,9.45,2.703859911
9.46,3.308,9.46,3.586980902,9.46,2.6893678
9.47,3.28,9.47,3.59798908,9.47,2.697914427
9.48,3.288,9.48,3.616218732,9.48,2.713826992
9.49,3.3,9.49,3.606630888,9.49,2.709176673
9.5,3.285,9.5,3.597834686,9.5,2.697396654
9.51,3.293,9.51,3.59377637,9.51,2.690320557
9.52,3.31,9.52,3.586654454,9.52,2.687641835
9.53,3.306,9.53,3.592017703,9.53,2.699185096
9.54,3.294,9.54,3.594440067,9.54,2.701513924
9.55,3.287,9.55,3.578192243,9.55,2.68309488
9.56,3.284,9.56,3.575236298,9.56,2.680527281
9.57,3.295,9.57,3.583705806,9.57,2.691451365
9.58,3.297,9.58,3.574002239,9.58,2.685995362
9.59,3.278,9.59,3.574576653,9.59,2.687577865
9.6,3.275,9.6,3.51455218,9.6,2.627711108
9.61,3.286,9.61,3.485772418,9.61,2.601778405
9.62,3.28,9.62,3.566685324,9.62,2.685243292
9.63,3.281,9.63,3.646101327,9.63,2.764539652
9.64,3.219,9.64,3.69049837,9.64,2.80718894
9.65,3.19,9.65,3.718445383,9.65,2.824675945
9.66,3.273,9.66,3.650141694,9.66,2.751512687
9.67,3.355,9.67,3.590404158,9.67,2.689550524
9.68,3.402,9.68,3.545348259,9.68,2.652039028
9.69,3.427,9.69,3.550912771,9.69,2.663985921
9.7,3.36,9.7,3.557500255,9.7,2.67853313
9.71,3.299,9.71,3.552062631,9.71,2.673947497
9.72,3.258,9.72,3.560551965,9.72,2.685750104
9.73,3.265,9.73,3.547855264,9.73,2.673495501
9.74,3.274,9.74,3.549857727,9.74,2.676385572
9.75,3.266,9.75,3.464313997,9.75,2.593712932
9.76,3.277,9.76,3.245387906,9.76,2.390481715
9.77,3.265,9.77,3.001424151,9.77,2.164531858
9.78,3.268,9.78,3.83489515,9.78,2.986051671
9.79,3.182,9.79,4.744225905,9.79,3.847098154
9.8,2.968,9.8,4.234997447,9.8,3.313432959
9.81,2.722,9.81,3.053270464,9.81,2.139565875
9.82,3.554,9.82,2.88147366,9.82,1.972639979
9.83,4.458,9.83,3.257027504,9.83,2.36932017
9.84,3.952,9.84,3.476746394,9.84,2.635146147
9.85,2.771,9.85,3.530346148,9.85,2.71094714
9.86,2.6,9.86,3.540575838,9.86,2.706324828
9.87,2.976,9.87,3.571616991,9.87,2.716148382
9.88,3.196,9.88,3.597597244,9.88,2.725812775
9.89,3.246,9.89,3.592852698,9.89,2.71761176
9.9,3.259,9.9,3.590246247,9.9,2.709438395
9.91,3.294,9.91,3.56427427,9.91,2.685561911
9.92,3.316,9.92,3.540935376,9.92,2.661857772
9.93,3.312,9.93,3.548814058,9.93,2.669735919
9.94,3.306,9.94,3.541827815,9.94,2.665690235
9.95,3.283,9.95,3.529873518,9.95,2.656829593
9.96,3.258,9.96,3.498654024,9.96,2.63018319
9.97,3.264,9.97,3.531240562,9.97,2.658613369
9.98,3.258,9.98,3.565667442,9.98,2.698783846
9.99,3.247,9.99,3.623117027,9.99,2.755574203
10,3.218,10,3.665702641,10,2.797269143
10.01,3.246,10.01,3.717230719,10.01,2.844878998
10.02,3.287,10.02,3.774591406,10.02,2.895327941
10.03,3.347,10.03,3.775424572,10.03,2.885330163
10.04,3.394,10.04,3.72103934,10.04,2.826488256
10.05,3.45,10.05,3.620130024,10.05,2.729879989
10.06,3.51,10.06,3.523176277,10.06,2.637873449
10.07,3.508,10.07,3.474975317,10.07,2.597893028
10.08,3.453,10.08,3.457255618,10.08,2.600182041
10.09,3.355,10.09,3.476606589,10.09,2.629737003
10.1,3.256,10.1,3.497620971,10.1,2.651135371
10.11,3.205,10.11,3.505544873,10.11,2.66350965
10.12,3.196,10.12,3.524905412,10.12,2.682269866
10.13,3.217,10.13,3.512454819,10.13,2.673916756
10.14,3.234,10.14,3.524291312,10.14,2.681960858
10.15,3.246,10.15,3.517280858,10.15,2.679655871
10.16,3.267,10.16,3.504053099,10.16,2.666255138
10.17,3.261,10.17,3.538189851,10.17,2.694567369
10.18,3.271,10.18,3.540318028,10.18,2.705229077
10.19,3.27,10.19,3.54965304,10.19,2.715822489
10.2,3.257,10.2,3.538752618,10.2,2.703776035
10.21,3.286,10.21,3.525042116,10.21,2.691648732
10.22,3.298,10.22,3.531005822,10.22,2.706029394
10.23,3.31,10.23,3.529609152,10.23,2.706811431
10.24,3.299,10.24,3.51350788,10.24,2.686791598
10.25,3.288,10.25,3.500680678,10.25,2.684478138
10.26,3.303,10.26,3.500755844,10.26,2.692473752
10.27,3.304,10.27,3.526326912,10.27,2.715186039
10.28,3.283,10.28,3.521548999,10.28,2.713011646
10.29,3.28,10.29,3.501486768,10.29,2.69472367
10.3,3.288,10.3,3.501880104,10.3,2.696249027
10.31,3.311,10.31,3.49696798,10.31,2.683533273
10.32,3.309,10.32,3.49738193,10.32,2.68658259
10.33,3.291,10.33,3.492801172,10.33,2.691416884
10.34,3.293,10.34,3.476878054,10.34,2.67906874
10.35,3.28,10.35,3.490704887,10.35,2.69425101
10.36,3.282,10.36,3.481956313,10.36,2.689142305
10.37,3.286,10.37,3.503157586,10.37,2.709347316
10.38,3.273,10.38,3.439026192,10.38,2.647977544
10.39,3.288,10.39,3.384560258,10.39,2.600936733
10.4,3.283,10.4,3.443133432,10.4,2.66419401
10.41,3.304,10.41,3.508435292,10.41,2.728894119
10.42,3.241,10.42,3.557593314,10.42,2.778495135
10.43,3.191,10.43,3.606084804,10.43,2.82296314
10.44,3.253,10.44,3.564659478,10.44,2.774120064
10.45,3.319,10.45,3.480936873,10.45,2.692404763
10.46,3.371,10.46,3.458374108,10.46,2.675720898
10.47,3.422,10.47,3.445491798,10.47,2.670251733
10.48,3.38,10.48,3.440492635,10.48,2.666012676
10.49,3.3,10.49,3.43637759,10.49,2.673149803
10.5,3.282,10.5,3.465341782,10.5,2.699442598
10.51,3.273,10.51,3.449666639,10.51,2.681736505
10.52,3.263,10.52,3.448855063,10.52,2.684593664
10.53,3.266,10.53,3.388324252,10.53,2.629145646
10.54,3.292,10.54,3.205864261,10.54,2.457310611
10.55,3.274,10.55,2.970805259,10.55,2.237015802
10.56,3.277,10.56,3.32178187,10.56,2.593327696
10.57,3.22,10.57,4.607493035,10.57,3.840195918
10.58,3.04,10.58,4.461162079,10.58,3.658314311
10.59,2.802,10.59,3.237341772,10.59,2.43021213
10.6,3.154,10.6,2.740204248,10.6,1.942094194
10.61,4.443,10.61,3.024042858,10.61,2.232489375
10.62,4.3,10.62,3.304667312,10.62,2.562705996
10.63,3.073,10.63,3.40620702,10.63,2.708083851
10.64,2.577,10.64,3.435963727,10.64,2.730806432
10.65,2.857,10.65,3.450325151,10.65,2.722780698
10.66,3.14,10.66,3.440819999,10.66,2.703030213
10.67,3.247,10.67,3.459911439,10.67,2.72164463
10.68,3.277,10.68,3.45191316,10.68,2.710469943
10.69,3.295,10.69,3.415038819,10.69,2.674684717
10.7,3.291,10.7,3.408933416,10.7,2.674584472
10.71,3.316,10.71,3.397594166,10.71,2.662807674
10.72,3.307,10.72,3.39294551,10.72,2.668799482
10.73,3.271,10.73,3.361093768,10.73,2.641554126
10.74,3.27,10.74,3.364235506,10.74,2.646854832
10.75,3.257,10.75,3.373686206,10.75,2.661614845
10.76,3.261,10.76,3.401707167,10.76,2.69371329
10.77,3.231,10.77,3.449342104,10.77,2.737299133
10.78,3.235,10.78,3.485280463,10.78,2.776204232
10.79,3.249,10.79,3.538461006,10.79,2.819443412
10.8,3.282,10.8,3.602766973,10.8,2.880653467
10.81,3.328,10.81,3.612589632,10.81,2.892333409
10.82,3.372,10.82,3.567789859,10.82,2.844229117
10.83,3.422,10.83,3.459238466,10.83,2.736611099
10.84,3.492,10.84,3.372415996,10.84,2.657829244
10.85,3.512,10.85,3.328344601,10.85,2.630891768
10.86,3.469,10.86,3.283380271,10.86,2.60600056
10.87,3.361,10.87,3.277523806,10.87,2.615567747
10.88,3.277,10.88,3.290713831,10.88,2.636646118
10.89,3.241,10.89,3.301883346,10.89,2.65988587
10.9,3.205,10.9,3.312490104,10.9,2.670425152
10.91,3.205,10.91,3.308126643,10.91,2.670582068
10.92,3.221,10.92,3.321724916,10.92,2.689938632
10.93,3.243,10.93,3.325149189,10.93,2.696549002
10.94,3.254,10.94,3.313641681,10.94,2.692066256
10.95,3.256,10.95,3.324936935,10.95,2.706401283
10.96,3.278,10.96,3.301809606,10.96,2.690349043
10.97,3.287,10.97,3.300552174,10.97,2.697804902
10.98,3.284,10.98,3.286408028,10.98,2.693731827
10.99,3.3,10.99,3.267249799,10.99,2.678127815
11,3.285,11,3.27253233,11,2.695490146
11.01,3.293,11.01,3.276525792,11.01,2.697236161
11.02,3.289,11.02,3.270974091,11.02,2.697275299
11.03,3.273,11.03,3.267195921,11.03,2.702951818
11.04,3.29,11.04,3.26571863,11.04,2.708791813
11.05,3.292,11.05,3.261490086,11.05,2.709213772
11.06,3.292,11.06,3.236083411,11.06,2.695213919
11.07,3.298,11.07,3.248751484,11.07,2.710632672
11.08,3.305,11.08,3.224488668,11.08,2.691957226
11.09,3.306,11.09,3.20537051,11.09,2.685789151
11.1,3.292,11.1,3.21744185,11.1,2.699186749
11.11,3.308,11.11,3.195929879,11.11,2.68847494
11.12,3.289,11.12,3.188205597,11.12,2.686455216
11.13,3.282,11.13,3.181612154,11.13,2.680961042
11.14,3.295,11.14,3.118863851,11.14,2.633020019
11.15,3.284,11.15,3.103614796,11.15,2.627838555
11.16,3.281,11.16,3.146585411,11.16,2.679414298
11.17,3.275,11.17,3.208540325,11.17,2.744469343
11.18,3.225,11.18,3.237196634,11.18,2.779907475
11.19,3.217,11.19,3.235589542,11.19,2.779343893
11.2,3.268,11.2,3.205853286,11.2,2.745523379
11.21,3.335,11.21,3.154981075,11.21,2.703023854
11.22,3.374,11.22,3.126054553,11.22,2.683710913
11.23,3.379,11.23,3.114242506,11.23,2.679106933
11.24,3.35,11.24,3.08728026,11.24,2.665344043
11.25,3.309,11.25,3.081898552,11.25,2.668533346
11.26,3.288,11.26,3.080614685,11.26,2.673127784
11.27,3.28,11.27,3.095827404,11.27,2.685528432
11.28,3.262,11.28,3.074455708,11.28,2.674075367
11.29,3.262,11.29,2.973940399,11.29,2.57951054
11.3,3.265,11.3,2.750773896,11.3,2.376675162
11.31,3.277,11.31,2.572907419,11.31,2.215406585
11.32,3.265,11.32,3.499555289,11.32,3.128017069
11.33,3.167,11.33,4.248017021,11.33,3.840969341
11.34,2.953,11.34,3.573945285,11.34,3.147718507
11.35,2.774,11.35,2.544599315,11.35,2.140195482
11.36,3.702,11.36,2.462075001,11.36,2.053143415
11.37,4.458,11.37,2.792297724,11.37,2.418494689
11.38,3.787,11.38,2.967378859,11.38,2.642125728
11.39,2.773,11.39,3.010351101,11.39,2.70784595
11.4,2.683,11.4,3.020138934,11.4,2.706099502
11.41,3.024,11.41,3.033505553,11.41,2.697548514
11.42,3.202,11.42,3.063035786,11.42,2.717280606
11.43,3.248,11.43,3.079827899,11.43,2.730826255
11.44,3.264,11.44,3.05588691,11.44,2.708764516
11.45,3.277,11.45,3.035013774,11.45,2.695710991
11.46,3.307,11.46,3.014586247,11.46,2.673919097
11.47,3.325,11.47,2.992125813,11.47,2.66075886
11.48,3.305,11.48,2.982926034,11.48,2.654581465
11.49,3.293,11.49,2.961317931,11.49,2.64029567
11.5,3.271,11.5,2.97028204,11.5,2.648360042
11.51,3.256,11.51,2.980745454,11.51,2.668905239
11.52,3.247,11.52,3.019550073,11.52,2.705535737
11.53,3.23,11.53,3.069541059,11.53,2.746251919
11.54,3.236,11.54,3.111767719,11.54,2.798252324
11.55,3.256,11.55,3.190808656,11.55,2.874393593
11.56,3.294,11.56,3.215673955,11.56,2.883606601
11.57,3.338,11.57,3.167715317,11.57,2.834743145
11.58,3.396,11.58,3.105803467,11.58,2.774554943
11.59,3.481,11.59,3.03526963,11.59,2.707953752
11.6,3.499,11.6,2.975337359,11.6,2.662357478
11.61,3.456,11.61,2.937025145,11.61,2.630907634
11.62,3.398,11.62,2.912693133,11.62,2.625414465
11.63,3.329,11.63,2.913687343,11.63,2.630863924
11.64,3.276,11.64,2.935473303,11.64,2.64927468
11.65,3.235,11.65,2.941741509,11.65,2.661369167
11.66,3.221,11.66,2.954998451,11.66,2.682180231
11.67,3.22,11.67,2.965793034,11.67,2.690120615
11.68,3.235,11.68,2.978332904,11.68,2.697660221
11.69,3.246,11.69,2.9701602,11.69,2.684175544
11.7,3.268,11.7,2.959574252,11.7,2.67537492
11.71,3.278,11.71,2.961299622,11.71,2.671515702
11.72,3.288,11.72,2.969723051,11.72,2.680694609
11.73,3.276,11.73,2.99891762,11.73,2.708227664
11.74,3.268,11.74,2.997187428,11.74,2.701545123
11.75,3.264,11.75,2.992541249,11.75,2.701533975
11.76,3.273,11.76,2.990491415,11.76,2.699409183
11.77,3.301,11.77,2.999601637,11.77,2.705355645
11.78,3.295,11.78,3.000409527,11.78,2.704357193
11.79,3.296,11.79,2.986812611,11.79,2.694502088
11.8,3.295,11.8,3.004706009,11.8,2.710103147
11.81,3.302,11.81,2.975728101,11.81,2.681717391
11.82,3.301,11.82,2.986415026,11.82,2.687403958
11.83,3.291,11.83,3.021890515,11.83,2.72371625
11.84,3.307,11.84,3.002375726,11.84,2.698573819
11.85,3.278,11.85,2.981222387,11.85,2.683591711
11.86,3.283,11.86,2.959335205,11.86,2.656562015
11.87,3.32,11.87,2.908859502,11.87,2.607591277
11.88,3.295,11.88,2.920811005,11.88,2.625460405
11.89,3.279,11.89,2.99945699,11.89,2.707462961
11.9,3.251,11.9,3.07013363,11.9,2.765694319
11.91,3.199,11.91,3.09983069,11.91,2.78986716
11.92,3.213,11.92,3.098875005,11.92,2.781211478
11.93,3.295,11.93,3.05998871,11.93,2.731673761
11.94,3.356,11.94,3.017891565,11.94,2.688656941
11.95,3.385,11.95,3.003387749,11.95,2.67350235
11.96,3.383,11.96,3.002321415,11.96,2.672587895
11.97,3.338,11.97,3.022055007,11.97,2.692032893
11.98,3.295,11.98,3.018644751,11.98,2.694814945
11.99,3.277,11.99,3.014325727,11.99,2.684434443
12,3.272,12,3.000276754,12,2.669939816
12.01,3.288,12.01,2.993230675,12.01,2.654838998
12.02,3.289,12.02,2.845513362,12.02,2.509816915
12.03,3.278,12.03,2.599080878,12.03,2.283573968
12.04,3.263,12.04,2.686984493,12.04,2.370241931
12.05,3.247,12.05,3.889103534,12.05,3.534180255
12.06,3.095,12.06,4.158214744,12.06,3.760026359
12.07,2.853,12.07,3.129220776,12.07,2.718688383
12.08,2.927,12.08,2.511161838,12.08,2.091161265
12.09,4.122,12.09,2.641507182,12.09,2.229195247
12.1,4.389,12.1,2.91039066,12.1,2.522490982
12.11,3.357,12.11,2.999450769,12.11,2.657387049
12.12,2.725,12.12,3.037876009,12.12,2.695604766
12.13,2.861,12.13,3.066173327,12.13,2.704754359
12.14,3.118,12.14,3.068294146,12.14,2.695589363
12.15,3.21,12.15,3.106693979,12.15,2.714809988
12.16,3.244,12.16,3.106241082,12.16,2.710405012
12.17,3.273,12.17,3.127139035,12.17,2.715941716
12.18,3.279,12.18,3.108272747,12.18,2.697180129
12.19,3.305,12.19,3.084292515,12.19,2.668680751
12.2,3.304,12.2,3.063092129,12.2,2.652774441
12.21,3.312,12.21,3.061574879,12.21,2.647121464
12.22,3.294,12.22,3.080414323,12.22,2.658439298
12.23,3.265,12.23,3.084006238,12.23,2.655290347
12.24,3.247,12.24,3.094405444,12.24,2.678258147
12.25,3.239,12.25,3.141952647,12.25,2.720946116
12.26,3.248,12.26,3.217701591,12.26,2.776176253
12.27,3.243,12.27,3.275294001,12.27,2.828601613
12.28,3.266,12.28,3.335498568,12.28,2.872923804
12.29,3.311,12.29,3.331836777,12.29,2.865072235
12.3,3.371,12.3,3.305012569,12.3,2.824142554
12.31,3.43,12.31,3.216805197,12.31,2.731740247
12.32,3.483,12.32,3.139349332,12.32,2.666036762
12.33,3.483,12.33,3.130802683,12.33,2.63759823
12.34,3.447,12.34,3.086233107,12.34,2.62015048
12.35,3.354,12.35,3.093565207,12.35,2.619738342
12.36,3.283,12.36,3.101407421,12.36,2.632669566
12.37,3.246,12.37,3.115561932,12.37,2.660088535
12.38,3.219,12.38,3.15487224,12.38,2.681373404
12.39,3.21,12.39,3.127824111,12.39,2.674859102
12.4,3.218,12.4,3.158091614,12.4,2.680723302
12.41,3.244,12.41,3.158752839,12.41,2.688511481
12.42,3.266,12.42,3.183710931,12.42,2.706520057
12.43,3.261,12.43,3.163298757,12.43,2.690871785
12.44,3.269,12.44,3.16105983,12.44,2.6832911
12.45,3.279,12.45,3.181722443,12.45,2.690707866
12.46,3.299,12.46,3.182562678,12.46,2.687596858
12.47,3.284,12.47,3.185709088,12.47,2.695925786
12.48,3.277,12.48,3.202439163,12.48,2.713059095
12.49,3.285,12.49,3.207706234,12.49,2.705191855
12.5,3.282,12.5,3.198245347,12.5,2.703650006
12.51,3.29,12.51,3.198254755,12.51,2.697212916
12.52,3.308,12.52,3.213410782,12.52,2.700920186
12.53,3.301,12.53,3.201804346,12.53,2.692608599
12.54,3.3,12.54,3.20483116,12.54,2.686295793
12.55,3.294,12.55,3.207583628,12.55,2.692729471
12.56,3.298,12.56,3.215531479,12.56,2.693910171
12.57,3.289,12.57,3.213124195,12.57,2.688455183
12.58,3.282,12.58,3.202867824,12.58,2.681925796
12.59,3.288,12.59,3.197073312,12.59,2.663827783
12.6,3.289,12.6,3.175390859,12.6,2.638923497
12.61,3.283,12.61,3.197670155,12.61,2.655512849
12.62,3.276,12.62,3.25421601,12.62,2.724357599
12.63,3.257,12.63,3.312665351,12.63,2.762476325
12.64,3.23,12.64,3.342305984,12.64,2.781076092
12.65,3.245,12.65,3.340883193,12.65,2.778576477
12.66,3.315,12.66,3.280446166,12.66,2.717705794
12.67,3.356,12.67,3.265917554,12.67,2.693270899
12.68,3.379,12.68,3.253635983,12.68,2.675081583
12.69,3.382,12.69,3.257891565,12.69,2.677770112
12.7,3.324,12.7,3.242428147,12.7,2.674831292
12.71,3.299,12.71,3.252284225,12.71,2.671006406
12.72,3.278,12.72,3.25140214,12.72,2.676130476
12.73,3.277,12.73,3.229407542,12.73,2.659143641
12.74,3.27,12.74,3.080830001,12.74,2.491449224
12.75,3.264,12.75,2.8108464,12.75,2.242106261
12.76,3.268,12.76,2.919147518,12.76,2.364550465
12.77,3.25,12.77,4.254111919,12.77,3.651369326
12.78,3.075,12.78,4.308465008,12.78,3.695692969
12.79,2.809,12.79,3.285331559,12.79,2.628990084
12.8,2.919,12.8,2.736030149,12.8,2.095734776
12.81,4.241,12.81,2.917629474,12.81,2.286376257
12.82,4.324,12.82,3.203504822,12.82,2.590598601
12.83,3.264,12.83,3.258158233,12.83,2.686990073
12.84,2.728,12.84,3.296895786,12.84,2.709097888
12.85,2.919,12.85,3.297216898,12.85,2.69255911
12.86,3.185,12.86,3.286859744,12.86,2.686670113
12.87,3.242,12.87,3.331744827,12.87,2.697897972
12.88,3.264,12.88,3.331933758,12.88,2.705834063
12.89,3.267,12.89,3.314670387,12.89,2.701677587
12.9,3.274,12.9,3.287195146,12.9,2.675567255
12.91,3.289,12.91,3.294477124,12.91,2.667031692
12.92,3.299,12.92,3.288819307,12.92,2.664184919
12.93,3.296,12.93,3.25730788,12.93,2.647392214
12.94,3.27,12.94,3.252764974,12.94,2.648529424
12.95,3.261,12.95,3.250511549,12.95,2.658397983
12.96,3.257,12.96,3.270475898,12.96,2.674364418
12.97,3.238,12.97,3.322898465,12.97,2.710814789
12.98,3.237,12.98,3.373338465,12.98,2.754840478
12.99,3.246,12.99,3.445425503,12.99,2.840466676
13,3.262,13,3.547731204,13,2.905707692
13.01,3.3,13.01,3.566139758,13.01,2.903270887
13.02,3.348,13.02,3.480805427,13.02,2.840258313
13.03,3.441,13.03,3.385584202,13.03,2.739581368
13.04,3.516,13.04,3.304471346,13.04,2.66805233
13.05,3.523,13.05,3.242456387,13.05,2.615529594
13.06,3.466,13.06,3.219606946,13.06,2.601217312
13.07,3.366,13.07,3.242570055,13.07,2.630130753
13.08,3.289,13.08,3.253233035,13.08,2.640247964
13.09,3.226,13.09,3.251816316,13.09,2.654143358
13.1,3.2,13.1,3.276480643,13.1,2.664352561
13.11,3.22,13.11,3.288070517,13.11,2.675144227
13.12,3.225,13.12,3.291677711,13.12,2.681372274
13.13,3.237,13.13,3.308072683,13.13,2.682671145
13.14,3.248,13.14,3.324125301,13.14,2.697788529
13.15,3.261,13.15,3.334721298,13.15,2.697268331
13.16,3.269,13.16,3.331676143,13.16,2.702002087
13.17,3.272,13.17,3.359772395,13.17,2.709699117
13.18,3.289,13.18,3.34491539,13.18,2.696937604
13.19,3.29,13.19,3.357038654,13.19,2.695828138
13.2,3.296,13.2,3.367687065,13.2,2.689970289
13.21,3.305,13.21,3.346924882,13.21,2.681655955
13.22,3.293,13.22,3.364652202,13.22,2.69423573
13.23,3.292,13.23,3.392354175,13.23,2.713658078
13.24,3.286,13.24,3.39889655,13.24,2.714011183
13.25,3.277,13.25,3.374257158,13.25,2.694832605
13.26,3.289,13.26,3.387668149,13.26,2.69914054
13.27,3.309,13.27,3.397533574,13.27,2.700810541
13.28,3.31,13.28,3.373978117,13.28,2.685788459
13.29,3.291,13.29,3.393506609,13.29,2.690658387
13.3,3.296,13.3,3.380820376,13.3,2.671560763
13.31,3.298,13.31,3.369135224,13.31,2.671681103
13.32,3.282,13.32,3.383273624,13.32,2.682514217
13.33,3.286,13.33,3.342738132,13.33,2.637468353
13.34,3.266,13.34,3.35232705,13.34,2.636674881
13.35,3.265,13.35,3.409925053,13.35,2.701767124
13.36,3.275,13.36,3.477114476,13.36,2.768301696
13.37,3.228,13.37,3.515362645,13.37,2.800872218
13.38,3.225,13.38,3.509367664,13.38,2.777379132
13.39,3.291,13.39,3.450588584,13.39,2.712964068
13.4,3.361,13.4,3.420991232,13.4,2.693617301
13.41,3.398,13.41,3.438408455,13.41,2.691956902
13.42,3.38,13.42,3.432601259,13.42,2.687940554
13.43,3.319,13.43,3.400875514,13.43,2.673930081
13.44,3.3,13.44,3.398566806,13.44,2.670884701
13.45,3.296,13.45,3.403456166,13.45,2.678896986
13.46,3.288,13.46,3.40498269,13.46,2.671093255
13.47,3.27,13.47,3.41108977,13.47,2.685494382
13.48,3.265,13.48,3.323020212,13.48,2.589822531
13.49,3.272,13.49,3.084647706,13.49,2.370314772
13.5,3.263,13.5,2.827006814,13.5,2.132410222
13.51,3.277,13.51,3.677508264,13.51,2.965686142
13.52,3.178,13.52,4.593238487,13.52,3.850061633
13.53,2.947,13.53,4.046336023,13.53,3.272885675
13.54,2.688,13.54,3.005233262,13.54,2.232895355
13.55,3.531,13.55,2.893899832,13.55,2.107645729
13.56,4.458,13.56,3.185965852,13.56,2.424190884
13.57,3.907,13.57,3.361292363,13.57,2.644326074
13.58,2.864,13.58,3.382347282,13.58,2.688860614
13.59,2.741,13.59,3.403448606,13.59,2.698592292
13.6,3.04,13.6,3.429174172,13.6,2.695218056
13.61,3.215,13.61,3.434740448,13.61,2.696327316
13.62,3.235,13.62,3.441020734,13.62,2.690900974
13.63,3.259,13.63,3.452010174,13.63,2.697870764
13.64,3.275,13.64,3.45931512,13.64,2.711168036
13.65,3.285,13.65,3.45103403,13.65,2.691734215
13.66,3.282,13.66,3.415679728,13.66,2.657927008
13.67,3.291,13.67,3.41517002,13.67,2.65322226
13.68,3.306,13.68,3.390672637,13.68,2.62496647
13.69,3.287,13.69,3.387633031,13.69,2.627296334
13.7,3.252,13.7,3.441408346,13.7,2.678132868
13.71,3.246,13.71,3.467622481,13.71,2.698910362
13.72,3.215,13.72,3.49687255,13.72,2.724461911
13.73,3.214,13.73,3.56103543,13.73,2.783531728
13.74,3.264,13.74,3.676140879,13.74,2.878763957
13.75,3.286,13.75,3.718631335,13.75,2.91033203
13.76,3.314,13.76,3.689301881,13.76,2.867955322
13.77,3.379,13.77,3.615706497,13.77,2.801813826
13.78,3.484,13.78,3.540903903,13.78,2.719050449
13.79,3.525,13.79,3.481019784,13.79,2.656628795
13.8,3.49,13.8,3.41788782,13.8,2.611730451
13.81,3.428,13.81,3.394524675,13.81,2.601334174
13.82,3.344,13.82,3.412875402,13.82,2.625124004
13.83,3.274,13.83,3.440377209,13.83,2.642407707
13.84,3.218,13.84,3.468947257,13.84,2.675963834
13.85,3.197,13.85,3.465842642,13.85,2.67834282
13.86,3.213,13.86,3.483937653,13.86,2.686556844
13.87,3.226,13.87,3.485189659,13.87,2.696877399
13.88,3.259,13.88,3.476716917,13.88,2.679245467
13.89,3.263,13.89,3.474704944,13.89,2.67784575
13.9,3.274,13.9,3.488634408,13.9,2.687227035
13.91,3.287,13.91,3.480411906,13.91,2.684117916
13.92,3.271,13.92,3.483099645,13.92,2.697976644
13.93,3.27,13.93,3.508424221,13.93,2.70303689
13.94,3.28,13.94,3.511921161,13.94,2.711698547
13.95,3.277,13.95,3.491440279,13.95,2.689518594
13.96,3.291,13.96,3.488997128,13.96,2.692116676
13.97,3.297,13.97,3.515233525,13.97,2.715354359
13.98,3.307,13.98,3.505504377,13.98,2.692645369
13.99,3.285,13.99,3.487939875,13.99,2.683661446
14,3.288,14,3.488370381,14,2.696403971
14.01,3.312,14.01,3.499433937,14.01,2.707822818
14.02,3.289,14.02,3.494259534,14.02,2.699444257
14.03,3.279,14.03,3.492343213,14.03,2.695372969
14.04,3.292,14.04,3.478192857,14.04,2.712284013
14.05,3.304,14.05,3.475132875,14.05,2.703958119
14.06,3.295,14.06,3.444533846,14.06,2.675153918
14.07,3.291,14.07,3.456875688,14.07,2.686620697
14.08,3.309,14.08,3.459864883,14.08,2.695616902
14.09,3.301,14.09,3.431126194,14.09,2.680851261
14.1,3.271,14.1,3.366699658,14.1,2.621073937
14.11,3.282,14.11,3.344399412,14.11,2.608741333
14.12,3.291,14.12,3.410937201,14.12,2.675422601
14.13,3.275,14.13,3.4720255,14.13,2.756444918
14.14,3.212,14.14,3.514415544,14.14,2.803056356
14.15,3.197,14.15,3.500929342,14.15,2.793482514
14.16,3.263,14.16,3.463739922,14.16,2.74297123
14.17,3.346,14.17,3.399776448,14.17,2.696466203
14.18,3.397,14.18,3.3845423,14.18,2.676765013
14.19,3.394,14.19,3.384451802,14.19,2.681886452
14.2,3.349,14.2,3.385367625,14.2,2.693621126
14.21,3.304,14.21,3.349825176,14.21,2.675488443
14.22,3.282,14.22,3.358797779,14.22,2.674793111
14.23,3.283,14.23,3.346346991,14.23,2.67144189
14.24,3.291,14.24,3.367906958,14.24,2.695260466
14.25,3.27,14.25,3.288180568,14.25,2.609593249
14.26,3.268,14.26,3.031481782,14.26,2.391437323
14.27,3.264,14.27,2.796845988,14.27,2.168940804
14.28,3.288,14.28,3.379114288,14.28,2.745388855
14.29,3.199,14.29,4.532938071,14.29,3.855139596
14.3,2.97,14.3,4.148634717,14.3,3.470526674
14.31,2.728,14.31,2.999479007,14.31,2.32783187
14.32,3.306,14.32,2.730257174,14.32,2.03952685
14.33,4.458,14.33,3.029037031,14.33,2.34646516
14.34,4.106,14.34,3.243969234,14.34,2.623137868
14.35,2.963,14.35,3.281344024,14.35,2.707287426
14.36,2.673,14.36,3.317996771,14.36,2.697853458
14.37,2.968,14.37,3.326119774,14.37,2.702836667
14.38,3.199,14.38,3.342454191,14.38,2.713678262
14.39,3.252,14.39,3.323256518,14.39,2.70412798
14.4,3.253,14.4,3.334285514,14.4,2.703463515
14.41,3.28,14.41,3.296858366,14.41,2.676769703
14.42,3.303,14.42,3.275305925,14.42,2.656812554
14.43,3.297,14.43,3.299598029,14.43,2.672184469
14.44,3.298,14.44,3.288271545,14.44,2.667559971
14.45,3.272,14.45,3.26591428,14.45,2.654519313
14.46,3.251,14.46,3.255601735,14.46,2.649750261
14.47,3.265,14.47,3.277436819,14.47,2.662746631
14.48,3.259,14.48,3.302742587,14.48,2.689279225
14.49,3.244,14.49,3.353265116,14.49,2.727151702
14.5,3.238,14.5,3.393749551,14.5,2.772672618
14.51,3.251,14.51,3.453852513,14.51,2.836406174
14.52,3.278,14.52,3.542788144,14.52,2.901896521
14.53,3.318,14.53,3.520268012,14.53,2.878904398
14.54,3.368,14.54,3.461678824,14.54,2.818373766
14.55,3.439,14.55,3.386865369,14.55,2.736603653
14.56,3.514,14.56,3.317823135,14.56,2.667113694
14.57,3.499,14.57,3.271215944,14.57,2.629089936
14.58,3.443,14.58,3.237311237,14.58,2.606728935
14.59,3.361,14.59,3.247335238,14.59,2.616313845
14.6,3.286,14.6,3.266092129,14.6,2.648921455
14.61,3.238,14.61,3.291985374,14.61,2.670091937
14.62,3.205,14.62,3.303041508,14.62,2.665667363
14.63,3.206,14.63,3.307873099,14.63,2.677532678
14.64,3.234,14.64,3.324787783,14.64,2.687959528
14.65,3.254,14.65,3.31033161,14.65,2.688330673
14.66,3.25,14.66,3.33780707,14.66,2.688391247
14.67,3.264,14.67,3.324488009,14.67,2.691158492
14.68,3.277,14.68,3.314428603,14.68,2.689469254
14.69,3.279,14.69,3.331336949,14.69,2.685396666
14.7,3.28,14.7,3.298393291,14.7,2.686359678
14.71,3.284,14.71,3.334453041,14.71,2.700816375
14.72,3.283,14.72,3.332618784,14.72,2.70620331
14.73,3.279,14.73,3.323317435,14.73,2.69495227
14.74,3.28,14.74,3.317383286,14.74,2.704191179
14.75,3.295,14.75,3.332739615,14.75,2.708284072
14.76,3.301,14.76,3.316104919,14.76,2.701176209
14.77,3.29,14.77,3.31188333,14.77,2.702249671
14.78,3.3,14.78,3.310059563,14.78,2.693247162
14.79,3.305,14.79,3.287399172,14.79,2.700354503
14.8,3.298,14.8,3.305915054,14.8,2.700645042
14.81,3.299,14.81,3.314478539,14.81,2.701645865
14.82,3.29,14.82,3.319659509,14.82,2.700719487
14.83,3.297,14.83,3.284021452,14.83,2.687935168
14.84,3.297,14.84,3.267623932,14.84,2.685512604
14.85,3.298,14.85,3.290222057,14.85,2.688017715
14.86,3.297,14.86,3.293360559,14.86,2.684705806
14.87,3.284,14.87,3.274335794,14.87,2.690178312
14.88,3.281,14.88,3.275034283,14.88,2.680540534
14.89,3.283,14.89,3.250286672,14.89,2.64609497
14.9,3.279,14.9,3.197052913,14.9,2.626514808
14.91,3.284,14.91,3.242640019,14.91,2.655776189
14.92,3.274,14.92,3.327837463,14.92,2.738189966
14.93,3.238,14.93,3.365428701,14.93,2.776734839
14.94,3.216,14.94,3.374163569,14.94,2.793176588
14.95,3.244,14.95,3.365330918,14.95,2.764637525
14.96,3.328,14.96,3.293488534,14.96,2.700340647
14.97,3.37,14.97,3.304193743,14.97,2.702048319
14.98,3.392,14.98,3.278163473,14.98,2.687898856
14.99,3.369,14.99,3.254159148,14.99,2.669389985
15,3.307,15,3.264497878,15,2.67208708
15.01,3.308,15.01,3.269662099,15.01,2.678352172
15.02,3.291,15.02,3.283107132,15.02,2.69797187
15.03,3.268,15.03,3.254864767,15.03,2.671954452
15.04,3.267,15.04,3.222966972,15.04,2.628725352
15.05,3.272,15.05,3.039130848,15.05,2.460818609
15.06,3.291,15.06,2.768992929,15.06,2.205953946
15.07,3.264,15.07,3.136271026,15.07,2.587172084
15.08,3.219,15.08,4.411732433,15.08,3.81168856
15.09,3.043,15.09,4.304985495,15.09,3.651133526
15.1,2.77,15.1,3.094537737,15.1,2.463023933
15.11,3.146,15.11,2.609899014,15.11,1.981303902
15.12,4.412,15.12,2.906230962,15.12,2.260331074
15.13,4.29,15.13,3.165038117,15.13,2.581588159
15.14,3.104,15.14,3.243850523,15.14,2.70648659
15.15,2.617,15.15,3.250636854,15.15,2.702267422
15.16,2.887,15.16,3.275584128,15.16,2.697590993
15.17,3.163,15.17,3.290508948,15.17,2.715492252
15.18,3.25,15.18,3.28850776,15.18,2.694995779
15.19,3.251,15.19,3.280970545,15.19,2.694620942
15.2,3.27,15.2,3.299983174,15.2,2.713516941
15.21,3.303,15.21,3.295667729,15.21,2.704392584
15.22,3.287,15.22,3.243977732,15.22,2.660132004
15.23,3.288,15.23,3.231118002,15.23,2.648753619
15.24,3.309,15.24,3.233902738,15.24,2.651373684
15.25,3.301,15.25,3.220872268,15.25,2.64412577
15.26,3.255,15.26,3.217907886,15.26,2.64370192
15.27,3.242,15.27,3.236597003,15.27,2.675450218
15.28,3.243,15.28,3.3108209,15.28,2.735451472
15.29,3.233,15.29,3.371344699,15.29,2.786470026
15.3,3.23,15.3,3.428710066,15.3,2.850521029
15.31,3.262,15.31,3.471976222,15.31,2.881009475
15.32,3.325,15.32,3.490332484,15.32,2.886142019
15.33,3.381,15.33,3.391591405,15.33,2.799550651
15.34,3.453,15.34,3.323084013,15.34,2.734360798
15.35,3.493,15.35,3.272359431,15.35,2.682838882
15.36,3.507,15.36,3.220365145,15.36,2.643512072
15.37,3.424,15.37,3.186072431,15.37,2.623794517
15.38,3.358,15.38,3.15004377,15.38,2.60505013
15.39,3.301,15.39,3.187975843,15.39,2.638869322
15.4,3.253,15.4,3.201197516,15.4,2.661869703
15.41,3.223,15.41,3.198170014,15.41,2.660205927
15.42,3.196,15.42,3.218480419,15.42,2.68740202
15.43,3.225,15.43,3.213372623,15.43,2.678829977
15.44,3.246,15.44,3.251028255,15.44,2.697549252
15.45,3.244,15.45,3.232000732,15.45,2.690247231
15.46,3.273,15.46,3.214604244,15.46,2.675375184
15.47,3.267,15.47,3.23756516,15.47,2.690975638
15.48,3.288,15.48,3.237065861,15.48,2.693249305
15.49,3.282,15.49,3.260856959,15.49,2.703890899
15.5,3.268,15.5,3.266514585,15.5,2.7052426
15.51,3.284,15.51,3.253888157,15.51,2.694444724
15.52,3.287,15.52,3.261282146,15.52,2.700008822
15.53,3.298,15.53,3.250294426,15.53,2.691970374
15.54,3.3,15.54,3.271799016,15.54,2.699078851
15.55,3.29,15.55,3.259784224,15.55,2.695405854
15.56,3.296,15.56,3.255693435,15.56,2.692477698
15.57,3.288,15.57,3.27927479,15.57,2.720718783
15.58,3.295,15.58,3.268652034,15.58,2.71581583
15.59,3.291,15.59,3.260400489,15.59,2.691071404
15.6,3.288,15.6,3.260544381,15.6,2.697923181
15.61,3.317,15.61,3.253997557,15.61,2.692844778
15.62,3.313,15.62,3.259385929,15.62,2.707317246
15.63,3.288,15.63,3.247489438,15.63,2.692226325
15.64,3.295,15.64,3.213559172,15.64,2.665237524
15.65,3.29,15.65,3.246191936,15.65,2.68674056
15.66,3.304,15.66,3.165937251,15.66,2.619595906
15.67,3.288,15.67,3.174897045,15.67,2.638380834
15.68,3.26,15.68,3.243634402,15.68,2.690707021
15.69,3.281,15.69,3.30140087,15.69,2.744964354
15.7,3.211,15.7,3.325356349,15.7,2.775765536
15.71,3.227,15.71,3.346688537,15.71,2.785437002
15.72,3.279,15.72,3.310905597,15.72,2.749798337
15.73,3.336,15.73,3.247234154,15.73,2.686314085
15.74,3.37,15.74,3.222536727,15.74,2.665722726
15.75,3.386,15.75,3.229949773,15.75,2.679970645
15.76,3.355,15.76,3.222237764,15.76,2.682849291
15.77,3.292,15.77,3.210016612,15.77,2.674045345
15.78,3.269,15.78,3.221244387,15.78,2.67302426
15.79,3.28,15.79,3.212709849,15.79,2.682804399
15.8,3.279,15.8,3.23539897,15.8,2.690697535
15.81,3.267,15.81,3.122519866,15.81,2.592245226
15.82,3.265,15.82,2.923593758,15.82,2.403543888
15.83,3.275,15.83,2.704149667,15.83,2.21038389
15.84,3.283,15.84,3.472053401,15.84,2.962064848
15.85,3.181,15.85,4.396360601,15.85,3.84565219
15.86,2.982,15.86,3.840021996,15.86,3.268570583
15.87,2.771,15.87,2.79206262,15.87,2.225023101
15.88,3.532,15.88,2.642601567,15.88,2.077910879
15.89,4.458,15.89,2.943805574,15.89,2.393683354
15.9,3.907,15.9,3.115368704,15.9,2.618865811
15.91,2.859,15.91,3.153550493,15.91,2.681800906
15.92,2.71,15.92,3.199293091,15.92,2.709105236
15.93,3.007,15.93,3.23665682,15.93,2.732310732
15.94,3.186,15.94,3.224307723,15.94,2.707794252
15.95,3.224,15.95,3.21829933,15.95,2.69124226
15.96,3.266,15.96,3.214830742,15.96,2.684240758
15.97,3.311,15.97,3.2313211,15.97,2.712677096
15.98,3.297,15.98,3.229867894,15.98,2.705044259
15.99,3.284,15.99,3.18690107,15.99,2.664422431
16,3.279,16,3.181903891,16,2.657610941
16.01,3.309,16.01,3.174601848,16.01,2.64608536
16.02,3.301,16.02,3.166105911,16.02,2.651547053
16.03,3.259,16.03,3.169696889,16.03,2.665290562
16.04,3.251,16.04,3.214016374,16.04,2.687679227
16.05,3.238,16.05,3.247497021,16.05,2.73208025
16.06,3.241,16.06,3.313958163,16.06,2.796478811
16.07,3.253,16.07,3.411423314,16.07,2.883515167
16.08,3.276,16.08,3.431383272,16.08,2.888479248
16.09,3.323,16.09,3.387899409,16.09,2.836891574
16.1,3.393,16.1,3.314523458,16.1,2.77704911
16.11,3.489,16.11,3.255431792,16.11,2.710229123
16.12,3.503,16.12,3.199623877,16.12,2.661923085
16.13,3.458,16.13,3.141360184,16.13,2.608449729
16.14,3.401,16.14,3.116522157,16.14,2.609641424
16.15,3.332,16.15,3.132187216,16.15,2.631234767
16.16,3.276,16.16,3.156541061,16.16,2.646902352
16.17,3.212,16.17,3.176837038,16.17,2.682278166
16.18,3.204,16.18,3.195471656,16.18,2.693823156
16.19,3.219,16.19,3.182687237,16.19,2.679508504
16.2,3.231,16.2,3.196842783,16.2,2.682551148
16.21,3.266,16.21,3.182859333,16.21,2.680060771
16.22,3.28,16.22,3.187579662,16.22,2.693335908
16.23,3.268,16.23,3.194715789,16.23,2.685411206
16.24,3.273,16.24,3.193214397,16.24,2.68504894
16.25,3.272,16.25,3.213460986,16.25,2.709926654
16.26,3.286,16.26,3.207016473,16.26,2.702986447
16.27,3.278,16.27,3.202982429,16.27,2.705446605
16.28,3.278,16.28,3.197622362,16.28,2.699793886
16.29,3.304,16.29,3.1916454,16.29,2.695282975
16.3,3.298,16.3,3.186008876,16.3,2.69668105
16.31,3.301,16.31,3.170432469,16.31,2.679512416
16.32,3.296,16.32,3.174522131,16.32,2.687199293
16.33,3.292,16.33,3.205296265,16.33,2.717584612
16.34,3.293,16.34,3.197787569,16.34,2.717792925
16.35,3.275,16.35,3.191227492,16.35,2.706436187
16.36,3.282,16.36,3.179332591,16.36,2.689998151
16.37,3.313,16.37,3.168481684,16.37,2.686918069
16.38,3.314,16.38,3.165938896,16.38,2.682183063
16.39,3.303,16.39,3.163866365,16.39,2.676740461
16.4,3.287,16.4,3.139528932,16.4,2.654767822
16.41,3.284,16.41,3.112727599,16.41,2.628261665
16.42,3.278,16.42,3.122041108,16.42,2.652814374
16.43,3.271,16.43,3.209862165,16.43,2.723551473
16.44,3.247,16.44,3.240007094,16.44,2.761563419
16.45,3.218,16.45,3.28430984,16.45,2.789512224
16.46,3.241,16.46,3.275467101,16.46,2.772794849
16.47,3.313,16.47,3.231317106,16.47,2.731272332
16.48,3.354,16.48,3.185854824,16.48,2.67927153
16.49,3.387,16.49,3.169754811,16.49,2.66826105
16.5,3.376,16.5,3.182368863,16.5,2.684022027
16.51,3.338,16.51,3.164196184,16.51,2.662335948
16.52,3.285,16.52,3.181290126,16.52,2.693225715
16.53,3.271,16.53,3.194943443,16.53,2.698975112
16.54,3.283,16.54,3.187379325,16.54,2.689542894
16.55,3.257,16.55,3.163908144,16.55,2.673160277
16.56,3.286,16.56,3.010924619,16.56,2.51957723
16.57,3.292,16.57,2.776436576,16.57,2.297606871
16.58,3.283,16.58,2.754313461,16.58,2.303203051
16.59,3.266,16.59,3.916373577,16.59,3.431728282
16.6,3.107,16.6,4.360960194,16.6,3.823084058
16.61,2.87,16.61,3.347235495,16.61,2.809904606
16.62,2.86,16.62,2.639122414,16.62,2.103589307
16.63,4.015,16.63,2.745935032,16.63,2.200205246
16.64,4.449,16.64,3.001294633,16.64,2.498313861
16.65,3.448,16.65,3.11817157,16.65,2.659232516
16.66,2.737,16.66,3.147314905,16.66,2.694832964
16.67,2.833,16.67,3.204453111,16.67,2.720881927
16.68,3.098,16.68,3.219030436,16.68,2.725581289
16.69,3.214,16.69,3.211769185,16.69,2.713076986
16.7,3.242,16.7,3.214470974,16.7,2.710742847
16.71,3.288,16.71,3.202265554,16.71,2.693960752
16.72,3.31,16.72,3.194001222,16.72,2.68035367
16.73,3.305,16.73,3.185649105,16.73,2.676726668
16.74,3.306,16.74,3.167370508,16.74,2.659606665
16.75,3.291,16.75,3.15939326,16.75,2.662488958
16.76,3.277,16.76,3.139575197,16.76,2.637805224
16.77,3.272,16.77,3.150577461,16.77,2.645396408
16.78,3.253,16.78,3.167402985,16.78,2.677651767
16.79,3.254,16.79,3.232266736,16.79,2.726377937
16.8,3.227,16.8,3.293879186,16.8,2.780049017
16.81,3.233,16.81,3.343116316,16.81,2.812327353
16.82,3.265,16.82,3.419404365,16.82,2.879067129
16.83,3.316,16.83,3.422595005,16.83,2.879636579
16.84,3.374,16.84,3.356443547,16.84,2.809433989
16.85,3.413,16.85,3.270522077,16.85,2.730212843
16.86,3.489,16.86,3.227064176,16.86,2.683238
16.87,3.498,16.87,3.175930648,16.87,2.648585171
16.88,3.432,16.88,3.137276291,16.88,2.614866163
16.89,3.352,16.89,3.125001439,16.89,2.610231631
16.9,3.301,16.9,3.151514414,16.9,2.645579536
16.91,3.258,16.91,3.18667698,16.91,2.675074629
16.92,3.214,16.92,3.196409087,16.92,2.678870781
16.93,3.201,16.93,3.173092475,16.93,2.664535244
16.94,3.232,16.94,3.173342382,16.94,2.663682621
16.95,3.26,16.95,3.211008171,16.95,2.68704911
16.96,3.264,16.96,3.220051036,16.96,2.695111034
16.97,3.251,16.97,3.212775297,16.97,2.696247733
16.98,3.252,16.98,3.227438537,16.98,2.700691657
16.99,3.277,16.99,3.216669041,16.99,2.695312887
17,3.286,17,3.218547924,17,2.70158788
17.01,3.288,17.01,3.216337107,17.01,2.691551292
17.02,3.294,17.02,3.224826741,17.02,2.698333082
17.03,3.29,17.03,3.225145203,17.03,2.694477974
17.04,3.297,17.04,3.215875758,17.04,2.691585924
17.05,3.287,17.05,3.21163998,17.05,2.694839971
17.06,3.294,17.06,3.248406385,17.06,2.713043384
17.07,3.29,17.07,3.250172469,17.07,2.708648244
17.08,3.287,17.08,3.227399197,17.08,2.696540986
17.09,3.29,17.09,3.211999897,17.09,2.689574174
17.1,3.309,17.1,3.220143887,17.1,2.690678101
17.11,3.305,17.11,3.222092011,17.11,2.699185525
17.12,3.293,17.12,3.24158916,17.12,2.704369704
17.13,3.286,17.13,3.227562244,17.13,2.691588824
17.14,3.287,17.14,3.209589825,17.14,2.680949031
17.15,3.295,17.15,3.219534708,17.15,2.684234842
17.16,3.3,17.16,3.154147624,17.16,2.618308237
17.17,3.287,17.17,3.165586658,17.17,2.631198985
17.18,3.276,17.18,3.213077271,17.18,2.685667411
17.19,3.279,17.19,3.30223838,17.19,2.757072426
17.2,3.21,17.2,3.336930208,17.2,2.790260528
17.21,3.22,17.21,3.332683441,17.21,2.78104278
17.22,3.274,17.22,3.302034122,17.22,2.733726792
17.23,3.348,17.23,3.246896039,17.23,2.697622264
17.24,3.385,17.24,3.231944535,17.24,2.673177736
17.25,3.382,17.25,3.251496327,17.25,2.694431334
17.26,3.339,17.26,3.25073961,17.26,2.690840611
17.27,3.304,17.27,3.220165407,17.27,2.659923237
17.28,3.277,17.28,3.216680864,17.28,2.665587387
17.29,3.295,17.29,3.249040727,17.29,2.683618869
17.3,3.288,17.3,3.255339895,17.3,2.689130309
17.31,3.254,17.31,3.13713455,17.31,2.579513693
17.32,3.258,17.32,2.930190292,17.32,2.382171222
17.33,3.276,17.33,2.71508302,17.33,2.171274193
17.34,3.281,17.34,3.606663947,17.34,3.057518747
17.35,3.167,17.35,4.448169183,17.35,3.845046613
17.36,2.959,17.36,3.737578708,17.36,3.119995513
17.37,2.729,17.37,2.820507426,17.37,2.212207303
17.38,3.628,17.38,2.803522548,17.38,2.176941952
17.39,4.458,17.39,3.065751396,17.39,2.46177239
17.4,3.754,17.4,3.205336462,17.4,2.651749575
17.41,2.842,17.41,3.236865348,17.41,2.705957219
17.42,2.81,17.42,3.252555669,17.42,2.701588825
17.43,3.075,17.43,3.267939808,17.43,2.689826471
17.44,3.22,17.44,3.277916075,17.44,2.690385074
17.45,3.256,17.45,3.300342343,17.45,2.714232474
17.46,3.267,17.46,3.291440821,17.46,2.703713963
17.47,3.272,17.47,3.267627021,17.47,2.675605019
17.48,3.28,17.48,3.26503427,17.48,2.666996804
17.49,3.307,17.49,3.266531774,17.49,2.673460044
17.5,3.298,17.5,3.26065005,17.5,2.673946102
17.51,3.27,17.51,3.231293568,17.51,2.643302766
17.52,3.261,17.52,3.22376192,17.52,2.641747842
17.53,3.267,17.53,3.257295525,17.53,2.664069953
17.54,3.266,17.54,3.278996845,17.54,2.688712176
17.55,3.233,17.55,3.325935173,17.55,2.735552009
17.56,3.23,17.56,3.395517692,17.56,2.803517364
17.57,3.252,17.57,3.470602191,17.57,2.869660706
17.58,3.277,17.58,3.522545256,17.58,2.903044205
17.59,3.326,17.59,3.48909133,17.59,2.867335872
17.6,3.4,17.6,3.409077162,17.6,2.791990916
17.61,3.475,17.61,3.307782033,17.61,2.698787597
17.62,3.518,17.62,3.269805376,17.62,2.64550818
17.63,3.49,17.63,3.222949864,17.63,2.622030534
17.64,3.418,17.64,3.167886322,17.64,2.60071154
17.65,3.322,17.65,3.209802789,17.65,2.634816379
17.66,3.261,17.66,3.234051407,17.66,2.654831512
17.67,3.227,17.67,3.228027845,17.67,2.653710791
17.68,3.195,17.68,3.222935475,17.68,2.657209581
17.69,3.222,17.69,3.242657162,17.69,2.663250901
17.7,3.239,17.7,3.270389362,17.7,2.699861985
17.71,3.237,17.71,3.275635157,17.71,2.691346904
17.72,3.241,17.72,3.265707621,17.72,2.690720174
17.73,3.249,17.73,3.280697025,17.73,2.694052351
17.74,3.288,17.74,3.291893197,17.74,2.691708036
17.75,3.281,17.75,3.281076026,17.75,2.697564835
17.76,3.282,17.76,3.292877736,17.76,2.696203125
17.77,3.287,17.77,3.306147486,17.77,2.709370793
17.78,3.286,17.78,3.31204293,17.78,2.713539908
17.79,3.292,17.79,3.301325615,17.79,2.695323178
17.8,3.291,17.8,3.293929238,17.8,2.694357491
17.81,3.305,17.81,3.301461285,17.81,2.707847093
17.82,3.31,17.82,3.297120373,17.82,2.7001377
17.83,3.292,17.83,3.290417243,17.83,2.687117724
17.84,3.291,17.84,3.302586281,17.84,2.694187708
17.85,3.305,17.85,3.307223225,17.85,2.699040673
17.86,3.297,17.86,3.297771605,17.86,2.693622496
17.87,3.283,17.87,3.292199973,17.87,2.691986091
17.88,3.29,17.88,3.320407323,17.88,2.70244149
17.89,3.295,17.89,3.307886845,17.89,2.689622542
17.9,3.289,17.9,3.301936717,17.9,2.689985041
17.91,3.287,17.91,3.285789944,17.91,2.675671014
17.92,3.298,17.92,3.318215051,17.92,2.701343108
17.93,3.285,17.93,3.266877802,17.93,2.648408025
17.94,3.285,17.94,3.224518125,17.94,2.603733204
17.95,3.27,17.95,3.278053152,17.95,2.66681185
17.96,3.296,17.96,3.363155292,17.96,2.739642728
17.97,3.241,17.97,3.391065938,17.97,2.766387543
17.98,3.193,17.98,3.433198815,17.98,2.800685641
17.99,3.255,17.99,3.402158641,17.99,2.763345947
18,3.33,18,3.353408751,18,2.70816051
18.01,3.359,18.01,3.333634914,18.01,2.685556786
18.02,3.399,18.02,3.321829765,18.02,2.675475374
18.03,3.368,18.03,3.326771412,18.03,2.682749171
18.04,3.315,18.04,3.314648449,18.04,2.67915925
18.05,3.291,18.05,3.323075372,18.05,2.685465993
18.06,3.278,18.06,3.33021194,18.06,2.681082946
18.07,3.281,18.07,3.324569562,18.07,2.687010414
18.08,3.274,18.08,3.296310383,18.08,2.658132645
18.09,3.279,18.09,3.078811814,18.09,2.454664686
18.1,3.274,18.1,2.844710875,18.1,2.237823929
18.11,3.28,18.11,3.031986059,18.11,2.431171285
18.12,3.25,18.12,4.315507357,18.12,3.672604854
18.13,3.038,18.13,4.351755328,18.13,3.670802143
18.14,2.804,18.14,3.257983777,18.14,2.573733074
18.15,2.987,18.15,2.756072945,18.15,2.075040319
18.16,4.264,18.16,2.993289377,18.16,2.300719019
18.17,4.3,18.17,3.233906837,18.17,2.584150191
18.18,3.209,18.18,3.306994992,18.18,2.696424416
18.19,2.707,18.19,3.312002213,18.19,2.692185852
18.2,2.931,18.2,3.343567861,18.2,2.711194865
18.21,3.175,18.21,3.361969642,18.21,2.709876317
18.22,3.249,18.22,3.357523158,18.22,2.702526744
18.23,3.246,18.23,3.356897558,18.23,2.711463944
18.24,3.286,18.24,3.341170629,18.24,2.693865342
18.25,3.298,18.25,3.32117042,18.25,2.680224355
18.26,3.295,18.26,3.315646603,18.26,2.656921772
18.27,3.306,18.27,3.300045024,18.27,2.646943017
18.28,3.29,18.28,3.28818189,18.28,2.646475758
18.29,3.276,18.29,3.277902648,18.29,2.645540245
18.3,3.251,18.3,3.309993362,18.3,2.671196104
18.31,3.239,18.31,3.330610204,18.31,2.686368576
18.32,3.236,18.32,3.355931536,18.32,2.719804552
18.33,3.233,18.33,3.404401973,18.33,2.762431635
18.34,3.258,18.34,3.445138094,18.34,2.800356596
18.35,3.274,18.35,3.528246762,18.35,2.878076394
18.36,3.31,18.36,3.560877853,18.36,2.887722748
18.37,3.357,18.37,3.495654067,18.37,2.824763784
18.38,3.401,18.38,3.426647713,18.38,2.76462562
18.39,3.487,18.39,3.348560553,18.39,2.689891154
18.4,3.505,18.4,3.283140663,18.4,2.640379945
18.41,3.447,18.41,3.26478318,18.41,2.615799877
18.42,3.388,18.42,3.241433362,18.42,2.604850092
18.43,3.31,18.43,3.2683595,18.43,2.645505795
18.44,3.252,18.44,3.289952614,18.44,2.666653915
18.45,3.217,18.45,3.306112855,18.45,2.67826755
18.46,3.197,18.46,3.293327544,18.46,2.669860805
18.47,3.232,18.47,3.297341925,18.47,2.675430383
18.48,3.251,18.48,3.302763282,18.48,2.679088285
18.49,3.263,18.49,3.288416077,18.49,2.673617303
18.5,3.256,18.5,3.329798547,18.5,2.698641563
18.51,3.264,18.51,3.312864168,18.51,2.700303521
18.52,3.269,18.52,3.308266539,18.52,2.687690014
18.53,3.264,18.53,3.323178853,18.53,2.700748242
18.54,3.29,18.54,3.320084509,18.54,2.695767241
18.55,3.293,18.55,3.335262589,18.55,2.704406359
18.56,3.281,18.56,3.321235815,18.56,2.703191182
18.57,3.295,18.57,3.315706869,18.57,2.693863874
18.58,3.291,18.58,3.305706303,18.58,2.683441869
18.59,3.3,18.59,3.324573413,18.59,2.702185664
18.6,3.299,18.6,3.326201093,18.6,2.713825631
18.61,3.29,18.61,3.323792978,18.61,2.701866317
18.62,3.279,18.62,3.319311832,18.62,2.709288294
18.63,3.298,18.63,3.329098853,18.63,2.71119903
18.64,3.31,18.64,3.31106326,18.64,2.682849284
18.65,3.298,18.65,3.294659623,18.65,2.681042216
18.66,3.306,18.66,3.308441283,18.66,2.688544781
18.67,3.309,18.67,3.297081649,18.67,2.686450536
18.68,3.28,18.68,3.331687363,18.68,2.702890211
18.69,3.277,18.69,3.323871264,18.69,2.688782949
18.7,3.284,18.7,3.330615115,18.7,2.695311585
18.71,3.281,18.71,3.333427834,18.71,2.692202328
18.72,3.297,18.72,3.337041714,18.72,2.698730334
18.73,3.283,18.73,3.290203375,18.73,2.659324065
18.74,3.29,18.74,3.249360898,18.74,2.607394004
18.75,3.287,18.75,3.30444362,18.75,2.649267562
18.76,3.294,18.76,3.374089282,18.76,2.72429222
18.77,3.253,18.77,3.4096792,18.77,2.763105927
18.78,3.198,18.78,3.453434992,18.78,2.801841704
18.79,3.238,18.79,3.454675771,18.79,2.783000771
18.8,3.314,18.8,3.398077041,18.8,2.717839774
18.81,3.355,18.81,3.339681343,18.81,2.665378717
18.82,3.399,18.82,3.357328116,18.82,2.668400849
18.83,3.387,18.83,3.360195592,18.83,2.673996371
18.84,3.325,18.84,3.363587766,18.84,2.679133922
18.85,3.271,18.85,3.372781741,18.85,2.697409718
18.86,3.271,18.86,3.377651661,18.86,2.686121796
18.87,3.272,18.87,3.381316903,18.87,2.685832411
18.88,3.273,18.88,3.34504682,18.88,2.656662239
18.89,3.29,18.89,3.151478878,18.89,2.4618666
18.9,3.279,18.9,2.935111234,18.9,2.258630251
18.91,3.279,18.91,3.107293684,18.91,2.437871928
18.92,3.249,18.92,4.387798039,18.92,3.679943031
18.93,3.046,18.93,4.433165531,18.93,3.688377542
18.94,2.826,18.94,3.329374222,18.94,2.57834391
18.95,2.995,18.95,2.794946614,18.95,2.049353004
18.96,4.273,18.96,3.011374509,18.96,2.269473955
18.97,4.32,18.97,3.27486003,18.97,2.57076927
18.98,3.216,18.98,3.364233839,18.98,2.694916775
18.99,2.682,18.99,3.372837793,18.99,2.708433346
19,2.899,19,3.402005742,19,2.711576805
19.01,3.16,19.01,3.420543595,19.01,2.712988614
19.02,3.245,19.02,3.418119458,19.02,2.702092813
19.03,3.26,19.03,3.410878404,19.03,2.697389299
19.04,3.285,19.04,3.395653547,19.04,2.683695966
19.05,3.301,19.05,3.402382411,19.05,2.686800647
19.06,3.295,19.06,3.38065853,19.06,2.671103267
19.07,3.292,19.07,3.381655296,19.07,2.668333011
19.08,3.279,19.08,3.371375098,19.08,2.664635715
19.09,3.282,19.09,3.317055359,19.09,2.616311711
19.1,3.265,19.1,3.345243435,19.1,2.645118799
19.11,3.261,19.11,3.397859736,19.11,2.695467883
19.12,3.256,19.12,3.43096103,19.12,2.725525016
19.13,3.205,19.13,3.478320538,19.13,2.77448814
19.14,3.232,19.14,3.514053275,19.14,2.815819556
19.15,3.283,19.15,3.578247028,19.15,2.853461642
19.16,3.315,19.16,3.598448048,19.16,2.865262648
19.17,3.368,19.17,3.564637387,19.17,2.836082843
19.18,3.417,19.18,3.493145904,19.18,2.773057607
19.19,3.463,19.19,3.410397951,19.19,2.685127928
19.2,3.482,19.2,3.341411444,19.2,2.618576904
19.21,3.458,19.21,3.323760478,19.21,2.617120573
19.22,3.396,19.22,3.322655597,19.22,2.633522155
19.23,3.304,19.23,3.336384092,19.23,2.648366118
19.24,3.229,19.24,3.331211896,19.24,2.645094117
19.25,3.218,19.25,3.363391431,19.25,2.673046953
19.26,3.226,19.26,3.357166089,19.26,2.668708842
19.27,3.235,19.27,3.367460895,19.27,2.683081769
19.28,3.229,19.28,3.382106912,19.28,2.696237802
19.29,3.258,19.29,3.383024186,19.29,2.68067985
19.3,3.255,19.3,3.397406834,19.3,2.695594276
19.31,3.271,19.31,3.405862705,19.31,2.704035769
19.32,3.286,19.32,3.398696765,19.32,2.697276277
19.33,3.272,19.33,3.409770884,19.33,2.705735521
19.34,3.288,19.34,3.399476906,19.34,2.698900541
19.35,3.298,19.35,3.390726289,19.35,2.690935324
19.36,3.292,19.36,3.394801373,19.36,2.686513453
19.37,3.301,19.37,3.39906161,19.37,2.69265592
19.38,3.295,19.38,3.409124568,19.38,2.703730027
19.39,3.287,19.39,3.392769889,19.39,2.693950071
19.4,3.282,19.4,3.404482039,19.4,2.69869734
19.41,3.288,19.41,3.398016515,19.41,2.697297522
19.42,3.299,19.42,3.406500666,19.42,2.699043216
19.43,3.289,19.43,3.405630927,19.43,2.707864017
19.44,3.294,19.44,3.398518722,19.44,2.702502384
19.45,3.293,19.45,3.381178456,19.45,2.691719586
19.46,3.295,19.46,3.370195169,19.46,2.670693868
19.47,3.304,19.47,3.383657569,19.47,2.689087842
19.48,3.299,19.48,3.403607814,19.48,2.711017206
19.49,3.288,19.49,3.376351381,19.49,2.686674493
19.5,3.266,19.5,3.375120965,19.5,2.686929893
19.51,3.284,19.51,3.400372708,19.51,2.703730217
19.52,3.306,19.52,3.394700124,19.52,2.69836758
19.53,3.281,19.53,3.386399912,19.53,2.693023848
19.54,3.281,19.54,3.339528688,19.54,2.650359983
19.55,3.299,19.55,3.295963108,19.55,2.614101486
19.56,3.294,19.56,3.329239119,19.56,2.649302822
19.57,3.288,19.57,3.399078047,19.57,2.721692133
19.58,3.244,19.58,3.450860702,19.58,2.762323878
19.59,3.205,19.59,3.484763547,19.59,2.799803985
19.6,3.238,19.6,3.484152892,19.6,2.795747585
19.61,3.311,19.61,3.419242658,19.61,2.720479683
19.62,3.354,19.62,3.371581105,19.62,2.683222841
19.63,3.397,19.63,3.373456463,19.63,2.682630104
19.64,3.4,19.64,3.34284118,19.64,2.668296593
19.65,3.328,19.65,3.348390502,19.65,2.676939447
19.66,3.29,19.66,3.347399684,19.66,2.674151745
19.67,3.287,19.67,3.324798997,19.67,2.658599894
19.68,3.268,19.68,3.340420095,19.68,2.6869269
19.69,3.272,19.69,3.30909882,19.69,2.651867962
19.7,3.267,19.7,3.110876881,19.7,2.469824864
19.71,3.25,19.71,2.849617336,19.71,2.226986349
19.72,3.278,19.72,3.146682964,19.72,2.53073647
19.73,3.242,19.73,4.443446973,19.73,3.790548522
19.74,3.052,19.74,4.302680042,19.74,3.614271434
19.75,2.792,19.75,3.143474221,19.75,2.458779815
19.76,3.09,19.76,2.693649524,19.76,2.007073443
19.77,4.39,19.77,2.985078975,19.77,2.309302752
19.78,4.25,19.78,3.242497793,19.78,2.614503881
19.79,3.096,19.79,3.273657696,19.79,2.690418686
19.8,2.639,19.8,3.308424841,19.8,2.708536557
19.81,2.936,19.81,3.331228462,19.81,2.713927231
19.82,3.198,19.82,3.324554503,19.82,2.700114678
19.83,3.237,19.83,3.332598203,19.83,2.702599849
19.84,3.261,19.84,3.328472339,19.84,2.697605029
19.85,3.29,19.85,3.337717883,19.85,2.706117177
19.86,3.289,19.86,3.311189942,19.86,2.685443089
19.87,3.295,19.87,3.28496691,19.87,2.65777916
19.88,3.292,19.88,3.282397855,19.88,2.65740277
19.89,3.302,19.89,3.274685773,19.89,2.653136134
19.9,3.281,19.9,3.265433895,19.9,2.644636511
19.91,3.252,19.91,3.282757352,19.91,2.658906422
19.92,3.25,19.92,3.299484972,19.92,2.679365074
19.93,3.244,19.93,3.343431683,19.93,2.727910247
19.94,3.233,19.94,3.402372741,19.94,2.780179452
19.95,3.246,19.95,3.461075777,19.95,2.830950815
19.96,3.267,19.96,3.50419386,19.96,2.866598202
