0.01,3.307,0.01,3.188309472,0.01,3.160792011
0.02,3.297,0.02,3.084783888,0.02,3.163221619
0.03,3.293,0.03,2.599984094,0.03,3.161441713
0.04,3.289,0.04,2.932547986,0.04,3.165671523
0.05,3.284,0.05,2.330441463,0.05,3.154610857
0.06,3.286,0.06,2.251931841,0.06,3.152453529
0.07,3.284,0.07,1.206722961,0.07,3.163826989
0.08,3.288,0.08,2.573797433,0.08,3.194527551
0.09,3.277,0.09,-0.494382967,0.09,3.18152676
0.1,3.275,0.1,19.19634043,0.1,3.166631888
0.11,3.286,0.11,25.18715814,0.11,3.166022091
0.12,3.316,0.12,18.43594467,0.12,3.156432648
0.13,3.303,0.13,13.7993401,0.13,3.145777048
0.14,3.289,0.14,1.631422469,0.14,3.136086706
0.15,3.289,0.15,-5.597631236,0.15,3.111909393
0.16,3.28,0.16,-11.82197511,0.16,3.101210547
0.17,3.269,0.17,-16.3066644,0.17,3.1346385
0.18,3.259,0.18,-19.57679873,0.18,3.234426265
0.19,3.235,0.19,-21.24337929,0.19,3.275808989
0.2,3.224,0.2,-23.01506674,0.2,3.274201697
0.21,3.256,0.21,-26.19615019,0.21,3.251797875
0.22,3.353,0.22,-25.76874121,0.22,3.189289193
0.23,3.393,0.23,-26.04820604,0.23,3.148554498
0.24,3.393,0.24,-25.09493007,0.24,3.15271287
0.25,3.374,0.25,-24.84905699,0.25,3.154771455
0.26,3.316,0.26,-24.37534764,0.26,3.145742297
0.27,3.277,0.27,-23.66326284,0.27,3.143697639
0.28,3.28,0.28,-21.43592253,0.28,3.141740077
0.29,3.28,0.29,-22.34689771,0.29,3.125644637
0.3,3.269,0.3,-18.80373062,0.3,3.111715614
0.31,3.266,0.31,-21.43517257,0.31,2.924495174
0.32,3.264,0.32,-22.26069323,0.32,2.641142454
0.33,3.248,0.33,-21.96170204,0.33,2.787645052
0.34,3.234,0.34,-18.53337346,0.34,4.341936884
0.35,3.05,0.35,-16.3082017,0.35,4.382002547
0.36,2.772,0.36,-16.12044343,0.36,3.166092459
0.37,2.913,0.37,-14.5831121,0.37,2.365196698
0.38,4.43,0.38,-13.66045742,0.38,2.576214348
0.39,4.458,0.39,-12.41637041,0.39,2.988531644
0.4,3.283,0.4,-11.36511061,0.4,3.162037119
0.41,2.528,0.41,-9.522828293,0.41,3.153591323
0.42,2.761,0.42,-8.111557001,0.42,3.126908108
0.43,3.136,0.43,-9.175612047,0.43,3.155460788
0.44,3.265,0.44,-9.178928119,0.44,3.181005771
0.45,3.245,0.45,-9.019941932,0.45,3.180181331
0.46,3.233,0.46,-7.369309065,0.46,3.184545845
0.47,3.273,0.47,-5.351764801,0.47,3.167731106
0.48,3.301,0.48,-7.315694148,0.48,3.137283234
0.49,3.3,0.49,-10.94854368,0.49,3.13331095
0.5,3.305,0.5,-13.54932307,0.5,3.125696411
0.51,3.29,0.51,-15.95673089,0.51,3.11539641
0.52,3.261,0.52,-12.50269428,0.52,3.131654339
0.53,3.257,0.53,-10.51579742,0.53,3.118855789
0.54,3.249,0.54,-8.40650114,0.54,3.139363725
0.55,3.238,0.55,-3.819682479,0.55,3.216145086
0.56,3.253,0.56,6.758208552,0.56,3.294308826
0.57,3.24,0.57,17.7579423,0.57,3.374938082
0.58,3.26,0.58,18.38258272,0.58,3.41401183
0.59,3.335,0.59,12.4766513,0.59,3.378989766
0.6,3.412,0.6,6.482326652,0.6,3.271910711
0.61,3.492,0.61,3.42599925,0.61,3.188699102
0.62,3.533,0.62,3.26410009,0.62,3.106827356
0.63,3.503,0.63,3.423550961,0.63,3.087833689
0.64,3.402,0.64,3.958229611,0.64,3.075777051
0.65,3.323,0.65,5.374487264,0.65,3.097895366
0.66,3.242,0.66,7.104201924,0.66,3.11509254
0.67,3.22,0.67,12.50223121,0.67,3.131017863
0.68,3.203,0.68,14.09999259,0.68,3.160593625
0.69,3.221,0.69,16.42345738,0.69,3.151562829
0.7,3.235,0.7,15.98937562,0.7,3.148419299
0.71,3.25,0.71,15.49622294,0.71,3.147668161
0.72,3.279,0.72,18.37544204,0.72,3.150071044
0.73,3.271,0.73,9.096052999,0.73,3.172758686
0.74,3.269,0.74,5.47763752,0.74,3.173848529
0.75,3.269,0.75,4.367640823,0.75,3.178554278
0.76,3.272,0.76,-0.842883018,0.76,3.177106477
0.77,3.294,0.77,1.924452279,0.77,3.168239621
0.78,3.295,0.78,2.057472738,0.78,3.159972694
0.79,3.3,0.79,1.01101696,0.79,3.177279829
0.8,3.299,0.8,7.670133708,0.8,3.167413562
0.81,3.291,0.81,20.88630421,0.81,3.164408119
0.82,3.283,0.82,35.27360201,0.82,3.169612503
0.83,3.3,0.83,36.0330978,0.83,3.176489187
0.84,3.29,0.84,27.61357456,0.84,3.196122959
0.85,3.287,0.85,14.09939268,0.85,3.169570684
0.86,3.292,0.86,10.50555807,0.86,3.160794849
0.87,3.299,0.87,12.42294509,0.87,3.165786579
0.88,3.318,0.88,11.79039556,0.88,3.165800518
0.89,3.292,0.89,8.762415253,0.89,3.152303699
0.9,3.284,0.9,4.319034913,0.9,3.173815122
0.91,3.289,0.91,-0.130574121,0.91,3.182109262
0.92,3.289,0.92,-1.430696301,0.92,3.184057587
0.93,3.275,0.93,-2.573317515,0.93,3.166673584
0.94,3.296,0.94,-4.503238042,0.94,3.150592868
0.95,3.304,0.95,-5.476146639,0.95,3.153621496
0.96,3.306,0.96,-7.439867475,0.96,3.167326066
0.97,3.289,0.97,-7.882989158,0.97,3.161908976
0.98,3.274,0.98,-7.637409794,0.98,3.150847903
0.99,3.277,0.99,-8.313770689,0.99,3.161837101
1,3.29,1,-6.939168943,1,3.167887003
1.01,3.284,1.01,-6.446104053,1.01,3.16908909
1.02,3.273,1.02,-6.636732828,1.02,3.10491867
1.03,3.284,1.03,-5.568965202,1.03,3.0819002
1.04,3.29,1.04,-3.960772344,1.04,3.139727701
1.05,3.291,1.05,-3.845333636,1.05,3.211516584
1.06,3.228,1.06,-3.015369007,1.06,3.243511799
1.07,3.206,1.07,-1.194619262,1.07,3.285061208
1.08,3.262,1.08,0.266065522,1.08,3.248428276
1.09,3.331,1.09,0.357179628,1.09,3.194311629
1.1,3.361,1.1,1.310021902,1.1,3.156503015
1.11,3.403,1.11,3.270645913,1.11,3.147355729
1.12,3.37,1.12,3.57357171,1.12,3.145523048
1.13,3.32,1.13,4.056114329,1.13,3.153729057
1.14,3.284,1.14,5.766328263,1.14,3.181457637
1.15,3.275,1.15,5.930466413,1.15,3.160345349
1.16,3.271,1.16,5.924576624,1.16,3.143586319
1.17,3.277,1.17,9.118121602,1.17,3.007734377
1.18,3.303,1.18,9.855839715,1.18,2.741179215
1.19,3.282,1.19,8.364935562,1.19,2.59965874
1.2,3.266,1.2,10.79127743,1.2,3.713858049
1.21,3.133,1.21,13.21862149,1.21,4.379268759
1.22,2.872,1.22,13.12366858,1.22,3.650763797
1.23,2.731,1.23,11.55076412,1.23,2.567666723
1.24,3.818,1.24,12.82740439,1.24,2.490690986
1.25,4.458,1.25,14.22634684,1.25,2.865998378
1.26,3.749,1.26,15.61714874,1.26,3.101454057
1.27,2.711,1.27,15.35724387,1.27,3.170911048
1.28,2.667,1.28,16.0222568,1.28,3.176863176
1.29,3.026,1.29,14.91903514,1.29,3.192699822
1.3,3.22,1.3,9.729895228,1.3,3.201753435
1.31,3.264,1.31,6.639259541,1.31,3.165249534
1.32,3.277,1.32,5.096372819,1.32,3.173275384
1.33,3.306,1.33,5.343999841,1.33,3.166675863
1.34,3.321,1.34,5.889920468,1.34,3.13299113
1.35,3.287,1.35,6.037415774,1.35,3.113417926
1.36,3.296,1.36,3.601725318,1.36,3.134109204
1.37,3.29,1.37,0.227282421,1.37,3.134143586
1.38,3.257,1.38,0.631261293,1.38,3.129963952
1.39,3.237,1.39,1.857195592,1.39,3.129194064
1.4,3.257,1.4,3.777383453,1.4,3.170516856
1.41,3.256,1.41,3.841808192,1.41,3.20846739
1.42,3.251,1.42,5.273627335,1.42,3.244774996
1.43,3.25,1.43,2.784336941,1.43,3.310954828
1.44,3.291,1.44,-2.04367597,1.44,3.375103067
1.45,3.328,1.45,-1.500384382,1.45,3.363476124
1.46,3.364,1.46,-1.62973376,1.46,3.312484316
1.47,3.43,1.47,-0.840272264,1.47,3.234207612
1.48,3.495,1.48,-4.70082861,1.48,3.150500235
1.49,3.486,1.49,-7.385864467,1.49,3.114709411
1.5,3.439,1.5,-11.65806156,1.5,3.087771461
1.51,3.365,1.51,-14.02788276,1.51,3.083448355
1.52,3.284,1.52,-15.9748005,1.52,3.07349039
1.53,3.247,1.53,-14.36971752,1.53,3.117892396
1.54,3.217,1.54,-11.34334993,1.54,3.163008517
1.55,3.209,1.55,-11.79809816,1.55,3.141488996
1.56,3.196,1.56,7.043245103,1.56,3.151673342
1.57,3.238,1.57,21.72072875,1.57,3.168537325
1.58,3.281,1.58,29.11302367,1.58,3.164481282
1.59,3.26,1.59,22.29431765,1.59,3.165624397
1.6,3.271,1.6,15.25245176,1.6,3.148777691
1.61,3.289,1.61,9.828116965,1.61,3.155395173
1.62,3.286,1.62,8.538225985,1.62,3.178159613
1.63,3.287,1.63,11.75557844,1.63,3.173236181
1.64,3.271,1.64,9.822605785,1.64,3.166078841
1.65,3.278,1.65,4.709852314,1.65,3.155406395
1.66,3.3,1.66,-0.241271366,1.66,3.163105409
1.67,3.295,1.67,-3.138465022,1.67,3.192074445
1.68,3.288,1.68,-5.572549565,1.68,3.183205251
1.69,3.278,1.69,-11.12731954,1.69,3.171681541
1.7,3.286,1.7,-14.07027238,1.7,3.183363644
1.71,3.314,1.71,-18.10174948,1.71,3.185985689
1.72,3.305,1.72,-19.28982776,1.72,3.168900374
1.73,3.294,1.73,-20.36698065,1.73,3.159752357
1.74,3.306,1.74,-20.17742116,1.74,3.153496832
1.75,3.309,1.75,-19.70333051,1.75,3.128320746
1.76,3.292,1.76,-20.34399846,1.76,3.16157787
1.77,3.283,1.77,-20.94235778,1.77,3.175657869
1.78,3.277,1.78,-20.79165461,1.78,3.158419782
1.79,3.252,1.79,-19.9300706,1.79,3.163464013
1.8,3.284,1.8,-20.27019183,1.8,3.12493476
1.81,3.297,1.81,-20.04003771,1.81,3.092036105
1.82,3.28,1.82,-18.21037718,1.82,3.135736732
1.83,3.285,1.83,-16.24556712,1.83,3.199991698
1.84,3.248,1.84,-15.44733784,1.84,3.253021431
1.85,3.216,1.85,-15.80076039,1.85,3.278929628
1.86,3.258,1.86,-14.53167368,1.86,3.259749262
1.87,3.32,1.87,-13.73512688,1.87,3.186434688
1.88,3.371,1.88,-11.02254186,1.88,3.140831683
1.89,3.397,1.89,-7.399014393,1.89,3.162725251
1.9,3.381,1.9,-4.863744332,1.9,3.156830783
1.91,3.312,1.91,-4.457369757,1.91,3.155000461
1.92,3.269,1.92,-3.360100146,1.92,3.13968221
1.93,3.29,1.93,-4.698794541,1.93,3.128025394
1.94,3.282,1.94,-5.964456692,1.94,3.162169113
1.95,3.278,1.95,-6.076208444,1.95,3.095523832
1.96,3.262,1.96,-4.468460526,1.96,2.875271661
1.97,3.251,1.97,-2.287572058,1.97,2.630869243
1.98,3.284,1.98,-1.084895682,1.98,3.081169678
1.99,3.218,1.99,-0.029793662,1.99,4.372640425
2,3.002,2,-4.627754888,2,4.121161967
2.01,2.762,2.01,-8.386467457,2.01,2.894696927
2.02,3.201,2.02,-8.526485607,2.02,2.483290809
2.03,4.458,2.03,-9.556801293,2.03,2.772396014
2.04,4.205,2.04,-6.365761425,2.04,3.066582197
2.05,3.022,2.05,1.35954173,2.05,3.139242529
2.06,2.649,2.06,11.64530852,2.06,3.14313906
2.07,2.946,2.07,13.900853,2.07,3.173058067
2.08,3.203,2.08,7.285157113,2.08,3.180668497
2.09,3.24,2.09,-2.410992178,2.09,3.199368321
2.1,3.242,2.1,-6.87170744,2.1,3.176053346
2.11,3.284,2.11,-5.295240031,2.11,3.166113352
2.12,3.299,2.12,-4.30968694,2.12,3.162648406
2.13,3.319,2.13,-2.750960534,2.13,3.124836
2.14,3.297,2.14,-1.468208791,2.14,3.117364985
2.15,3.289,2.15,-1.901201756,2.15,3.110041868
2.16,3.286,2.16,-1.268563228,2.16,3.108767498
2.17,3.249,2.17,-2.368866565,2.17,3.132471859
2.18,3.241,2.18,-2.986714783,2.18,3.154318713
2.19,3.233,2.19,-4.983570633,2.19,3.184864546
2.2,3.231,2.2,-10.45013312,2.2,3.230198811
2.21,3.253,2.21,-6.616040852,2.21,3.318606921
2.22,3.274,2.22,-8.058260198,2.22,3.376208768
2.23,3.304,2.23,11.74087906,2.23,3.37446377
2.24,3.349,2.24,3.424233213,2.24,3.337285744
2.25,3.437,2.25,-2.397284533,2.25,3.243095287
2.26,3.495,2.26,11.97357537,2.26,3.17343498
2.27,3.496,2.27,5.992005279,2.27,3.125190604
2.28,3.463,2.28,-0.344229753,2.28,3.085609033
2.29,3.374,2.29,-3.99025691,2.29,3.074507664
2.3,3.307,2.3,-3.28489326,2.3,3.088977384
2.31,3.258,2.31,-0.322114886,2.31,3.116752105
2.32,3.216,2.32,0.658882288,2.32,3.132327677
2.33,3.201,2.33,5.088374636,2.33,3.145471878
2.34,3.212,2.34,5.831911897,2.34,3.155802577
2.35,3.237,2.35,3.007513315,2.35,3.14247972
2.36,3.251,2.36,1.323945312,2.36,3.153909774
2.37,3.264,2.37,1.199384857,2.37,3.181118245
2.38,3.275,2.38,-3.657794548,2.38,3.176807298
2.39,3.263,2.39,-4.665408336,2.39,3.173461286
2.4,3.275,2.4,-3.952228107,2.4,3.167662962
2.41,3.302,2.41,-2.643993953,2.41,3.154771871
2.42,3.298,2.42,-3.315530404,2.42,3.153956274
2.43,3.295,2.43,-3.696460474,2.43,3.15838157
2.44,3.29,2.44,-2.395857017,2.44,3.166889758
2.45,3.278,2.45,-1.07255365,2.45,3.174335463
2.46,3.277,2.46,-0.264715386,2.46,3.185406827
2.47,3.281,2.47,1.739808038,2.47,3.186110156
2.48,3.289,2.48,2.923974241,2.48,3.189683862
2.49,3.296,2.49,2.809542931,2.49,3.179119256
2.5,3.307,2.5,4.442709689,2.5,3.167492677
2.51,3.308,2.51,6.690187377,2.51,3.15733617
2.52,3.312,2.52,7.627917014,2.52,3.172814642
2.53,3.302,2.53,8.459081062,2.53,3.158176355
2.54,3.291,2.54,10.44797231,2.54,3.170592718
2.55,3.281,2.55,11.99921872,2.55,3.153580969
2.56,3.296,2.56,13.65152192,2.56,3.129714702
2.57,3.281,2.57,16.71480627,2.57,3.156651846
2.58,3.293,2.58,17.64438016,2.58,3.136631107
2.59,3.276,2.59,19.33080053,2.59,3.108459129
2.6,3.253,2.6,17.21653629,2.6,3.122184352
2.61,3.279,2.61,16.68508151,2.61,3.189519441
2.62,3.259,2.62,21.54383751,2.62,3.224132489
2.63,3.231,2.63,25.75930179,2.63,3.271672101
2.64,3.244,2.64,20.67650679,2.64,3.287219719
2.65,3.31,2.65,12.46369871,2.65,3.203642854
2.66,3.343,2.66,6.063240711,2.66,3.149513524
2.67,3.39,2.67,3.141618955,2.67,3.157189722
2.68,3.407,2.68,5.410658424,2.68,3.134309009
2.69,3.328,2.69,9.249630339,2.69,3.149351515
2.7,3.277,2.7,13.14113969,2.7,3.169412511
2.71,3.285,2.71,19.94961717,2.71,3.181655747
2.72,3.261,2.72,36.35519356,2.72,3.136022315
2.73,3.273,2.73,42.93104845,2.73,2.923079238
2.74,3.291,2.74,37.86234465,2.74,2.647305972
2.75,3.303,2.75,27.54420452,2.75,2.744983656
2.76,3.258,2.76,22.0799386,2.76,4.18303788
2.77,3.05,2.77,21.99046063,2.77,4.382072182
2.78,2.78,2.78,21.06781012,2.78,3.197474951
2.79,2.873,2.79,20.99817229,2.79,2.499278675
2.8,4.275,2.8,22.38676916,2.8,2.676281539
2.81,4.458,2.81,24.32822527,2.81,2.995515924
2.82,3.311,2.82,24.87213464,2.82,3.119069862
2.83,2.656,2.83,24.96637341,2.83,3.166644138
2.84,2.855,2.84,23.83280488,2.84,3.167597943
2.85,3.145,2.85,24.34632505,2.85,3.177040785
2.86,3.227,2.86,19.13992075,2.86,3.172011734
2.87,3.263,2.87,14.66769388,2.87,3.162358361
2.88,3.275,2.88,26.30608303,2.88,3.165812701
2.89,3.294,2.89,22.65467344,2.89,3.168507597
2.9,3.292,2.9,23.67898756,2.9,3.143151528
2.91,3.284,2.91,30.47468492,2.91,3.141156771
2.92,3.288,2.92,27.52016527,2.92,3.140367218
2.93,3.291,2.93,33.01510296,2.93,3.113181003
2.94,3.266,2.94,41.8634698,2.94,3.088369164
2.95,3.264,2.95,48.78477473,2.95,3.11631656
2.96,3.263,2.96,47.73578863,2.96,3.178392398
2.97,3.236,2.97,44.24407585,2.97,3.22820623
2.98,3.211,2.98,40.53110588,2.98,3.30310115
2.99,3.238,2.99,40.66101575,2.99,3.369154454
3,3.298,3,37.96308007,3,3.397348032
3.01,3.346,3.01,36.00000058,3.01,3.35922758
3.02,3.42,3.02,33.51869325,3.02,3.271947819
3.03,3.487,3.03,29.03413815,3.03,3.188352922
3.04,3.518,3.04,24.19349217,3.04,3.115694542
3.05,3.484,3.05,20.30012872,3.05,3.083307001
3.06,3.402,3.06,17.25392204,3.06,3.071575351
3.07,3.322,3.07,12.74434915,3.07,3.088692633
3.08,3.25,3.08,13.6388183,3.08,3.119061556
3.09,3.215,3.09,14.11430014,3.09,3.127296028
3.1,3.199,3.1,12.58752776,3.1,3.132231539
3.11,3.212,3.11,11.82466566,3.11,3.158871484
3.12,3.239,3.12,11.1675606,3.12,3.167177856
3.13,3.246,3.13,12.70967648,3.13,3.160388208
3.14,3.251,3.14,14.03545833,3.14,3.142340952
3.15,3.278,3.15,11.84437571,3.15,3.155762144
3.16,3.287,3.16,12.95172908,3.16,3.16304622
3.17,3.281,3.17,13.52155397,3.17,3.173470918
3.18,3.264,3.18,15.41596466,3.18,3.177723175
3.19,3.278,3.19,18.00328135,3.19,3.159748281
3.2,3.285,3.2,19.5348379,3.2,3.172536437
3.21,3.295,3.21,21.27015156,3.21,3.180653144
3.22,3.299,3.22,19.60340259,3.22,3.176546718
3.23,3.282,3.23,22.31071342,3.23,3.162412297
3.24,3.295,3.24,24.54194631,3.24,3.179275454
3.25,3.303,3.25,26.22845615,3.25,3.187536772
3.26,3.299,3.26,27.18203646,3.26,3.186602173
3.27,3.285,3.27,27.15775752,3.27,3.161117803
3.28,3.302,3.28,27.58762393,3.28,3.154347306
3.29,3.31,3.29,27.83698823,3.29,3.155535528
3.3,3.309,3.3,25.68719713,3.3,3.177455512
3.31,3.284,3.31,25.72025723,3.31,3.183388072
3.32,3.278,3.32,24.90009184,3.32,3.162837733
3.33,3.279,3.33,25.0154869,3.33,3.154193096
3.34,3.3,3.34,21.71423674,3.34,3.156878304
3.35,3.305,3.35,19.246473,3.35,3.138837585
3.36,3.285,3.36,19.04690946,3.36,3.092536717
3.37,3.277,3.37,20.57153083,3.37,3.089810146
3.38,3.28,3.38,24.3739432,3.38,3.174304632
3.39,3.262,3.39,25.28135347,3.39,3.249191563
3.4,3.216,3.4,27.12721813,3.4,3.287148773
3.41,3.213,3.41,28.3108363,3.41,3.282885368
3.42,3.295,3.42,28.14284474,3.42,3.221800757
3.43,3.367,3.43,32.38018091,3.43,3.16098484
3.44,3.404,3.44,35.47711492,3.44,3.149491136
3.45,3.402,3.45,45.44676242,3.45,3.135998059
3.46,3.346,3.46,46.35336228,3.46,3.129410529
3.47,3.289,3.47,41.00766245,3.47,3.138522452
3.48,3.278,3.48,31.08349284,3.48,3.15145689
3.49,3.263,3.49,26.21948417,3.49,3.151940188
3.5,3.254,3.5,28.08718332,3.5,3.139662294
3.51,3.261,3.51,30.69111672,3.51,2.981256628
3.52,3.273,3.52,33.38456598,3.52,2.716679384
3.53,3.273,3.53,36.00451416,3.53,2.632960708
3.54,3.261,3.54,36.49009052,3.54,3.96462743
3.55,3.106,3.55,36.98533461,3.55,4.380598629
3.56,2.847,3.56,34.01762817,3.56,3.402474833
3.57,2.763,3.57,32.55310286,3.57,2.517429149
3.58,4.063,3.58,29.71046715,3.58,2.610829946
3.59,4.458,3.59,28.49220655,3.59,2.955373659
3.6,3.509,3.6,25.93047324,3.6,3.119411055
3.61,2.667,3.61,22.18341445,3.61,3.166942909
3.62,2.788,3.62,26.31840588,3.62,3.16383586
3.63,3.109,3.63,28.12211817,3.63,3.152486612
3.64,3.232,3.64,24.64497376,3.64,3.168853835
3.65,3.262,3.65,24.7066725,3.65,3.18936681
3.66,3.269,3.66,24.36373784,3.66,3.201146295
3.67,3.269,3.67,31.29049195,3.67,3.163843123
3.68,3.289,3.68,29.93452633,3.68,3.133106714
3.69,3.31,3.69,31.69750944,3.69,3.114470928
3.7,3.322,3.7,43.67614101,3.7,3.099813529
3.71,3.286,3.71,47.45124619,3.71,3.111706856
3.72,3.257,3.72,55.88663477,3.72,3.126313835
3.73,3.239,3.73,49.83449707,3.73,3.148335071
3.74,3.224,3.74,43.83032578,3.74,3.173935087
3.75,3.234,3.75,44.8114664,3.75,3.22313704
3.76,3.247,3.76,45.84886984,3.76,3.303732677
3.77,3.268,3.77,47.27104616,3.77,3.360307625
3.78,3.293,3.78,42.26528741,3.78,3.395457642
3.79,3.342,3.79,38.47401305,3.79,3.364525171
3.8,3.422,3.8,32.13588556,3.8,3.259830745
3.81,3.479,3.81,27.8472552,3.81,3.191553161
3.82,3.516,3.82,23.57150758,3.82,3.128101527
3.83,3.489,3.83,19.90808705,3.83,3.082321378
3.84,3.39,3.84,14.08352779,3.84,3.073710885
3.85,3.325,3.85,11.24084147,3.85,3.077230937
3.86,3.262,3.86,10.83515969,3.86,3.104409032
3.87,3.214,3.87,5.920712941,3.87,3.139658212
3.88,3.201,3.88,3.10480812,3.88,3.16521855
3.89,3.201,3.89,0.622268309,3.89,3.166433284
3.9,3.225,3.9,0.57766945,3.9,3.15568566
3.91,3.258,3.91,-0.676082036,3.91,3.15431608
3.92,3.283,3.92,-1.018583012,3.92,3.154746736
3.93,3.285,3.93,-1.244331029,3.93,3.156872455
3.94,3.276,3.94,-3.422061122,3.94,3.152017647
3.95,3.276,3.95,-4.177610596,3.95,3.159091462
3.96,3.277,3.96,-3.230630694,3.96,3.179516498
3.97,3.279,3.97,-2.808949886,3.97,3.179484434
3.98,3.274,3.98,-3.685491153,3.98,3.173084276
3.99,3.281,3.99,-3.487785347,3.99,3.160328447
4,3.301,4,-2.253029805,4,3.179196211
4.01,3.301,4.01,-1.143984231,4.01,3.184628731
4.02,3.295,4.02,-0.944992474,4.02,3.182659656
4.03,3.283,4.03,-2.814979311,4.03,3.1724219
4.04,3.302,4.04,-2.156164501,4.04,3.173854456
4.05,3.307,4.05,-0.940332371,4.05,3.157600451
4.06,3.305,4.06,-1.639296572,4.06,3.152639306
4.07,3.295,4.07,-2.428295201,4.07,3.17045378
4.08,3.297,4.08,-3.592991417,4.08,3.179947412
4.09,3.281,4.09,-4.786724878,4.09,3.169018165
4.1,3.276,4.1,-4.591047409,4.1,3.150373143
4.11,3.293,4.11,-5.847488004,4.11,3.159053621
4.12,3.302,4.12,-10.38801489,4.12,3.16335947
4.13,3.291,4.13,-8.908413552,4.13,3.147508585
4.14,3.273,4.14,-8.361848521,4.14,3.088645255
4.15,3.282,4.15,-6.334560539,4.15,3.078227304
4.16,3.286,4.16,-6.615023056,4.16,3.166909211
4.17,3.27,4.17,-5.60333967,4.17,3.236952393
4.18,3.212,4.18,-4.640297963,4.18,3.257949431
4.19,3.202,4.19,2.440079479,4.19,3.266081866
4.2,3.288,4.2,7.942807193,4.2,3.23482423
4.21,3.355,4.21,3.028713944,4.21,3.19265273
4.22,3.375,4.22,-8.238143644,4.22,3.152501142
4.23,3.385,4.23,-16.77949552,4.23,3.160282181
4.24,3.358,4.24,-17.03940278,4.24,3.153106089
4.25,3.319,4.25,-15.95185469,4.25,3.153649947
4.26,3.28,4.26,-12.19205511,4.26,3.152732203
4.27,3.287,4.27,-10.04239182,4.27,3.145551824
4.28,3.278,4.28,-6.154060927,4.28,3.146850268
4.29,3.277,4.29,-6.054456631,4.29,3.022669868
4.3,3.275,4.3,-6.816812049,4.3,2.793136962
4.31,3.268,4.31,-6.938803579,4.31,2.640694984
4.32,3.269,4.32,-7.623312588,4.32,3.662935515
4.33,3.147,4.33,-9.158405976,4.33,4.377329549
4.34,2.922,4.34,-17.13592547,4.34,3.672957526
4.35,2.771,4.35,-25.05718113,4.35,2.555144896
4.36,3.769,4.36,-27.84673541,4.36,2.469241107
4.37,4.458,4.37,-27.30109644,4.37,2.834169299
4.38,3.772,4.38,-30.70456918,4.38,3.084948706
4.39,2.699,4.39,-25.65514074,4.39,3.169994603
4.4,2.645,4.4,-21.10712745,4.4,3.192478262
4.41,2.995,4.41,-19.83275204,4.41,3.208157225
4.42,3.204,4.42,-6.346913811,4.42,3.182684501
4.43,3.262,4.43,10.77106984,4.43,3.169909587
4.44,3.291,4.44,18.04159357,4.44,3.182152634
4.45,3.32,4.45,6.642199121,4.45,3.176719766
4.46,3.302,4.46,-21.34701917,4.46,3.163909481
4.47,3.292,4.47,-14.46495287,4.47,3.13548884
4.48,3.305,4.48,-13.89454004,4.48,3.127174973
4.49,3.3,4.49,-10.47397929,4.49,3.122839818
4.5,3.287,4.5,-3.048203981,4.5,3.099289072
4.51,3.259,4.51,-2.365323167,4.51,3.127728932
4.52,3.251,4.52,-19.31051199,4.52,3.151928388
4.53,3.246,4.53,-19.30102717,4.53,3.208142144
4.54,3.222,4.54,-19.43233531,4.54,3.27036122
4.55,3.249,4.55,-20.39430966,4.55,3.327670778
4.56,3.272,4.56,-27.54630636,4.56,3.390606152
4.57,3.327,4.57,-31.91870839,4.57,3.365977905
4.58,3.388,4.58,-34.86185145,4.58,3.296046376
4.59,3.446,4.59,-34.90020116,4.59,3.206935389
4.6,3.51,4.6,-35.21120025,4.6,3.119618624
4.61,3.489,4.61,-38.52413812,4.61,3.087663984
4.62,3.424,4.62,-38.60704301,4.62,3.082877433
4.63,3.339,4.63,-39.17033175,4.63,3.118688252
4.64,3.254,4.64,-38.64444272,4.64,3.123863436
4.65,3.22,4.65,-38.76630612,4.65,3.125491103
4.66,3.211,4.66,-39.36422,4.66,3.143578071
4.67,3.242,4.67,-38.43510357,4.67,3.147811073
4.68,3.244,4.68,-38.75785643,4.68,3.149508493
4.69,3.245,4.69,-37.20884685,4.69,3.154223208
4.7,3.263,4.7,-33.26792417,4.7,3.174010012
4.71,3.268,4.71,-31.34276116,4.71,3.177893584
4.72,3.27,4.72,-31.17359355,4.72,3.148915796
4.73,3.275,4.73,-32.1210811,4.73,3.154438091
4.74,3.295,4.74,-30.852846,4.74,3.17466016
4.75,3.299,4.75,-30.80233455,4.75,3.16373428
4.76,3.271,4.76,-29.10449151,4.76,3.168154957
4.77,3.277,4.77,-31.94784955,4.77,3.159705733
4.78,3.297,4.78,-31.64186918,4.78,3.167386476
4.79,3.286,4.79,-24.89309489,4.79,3.181031104
4.8,3.29,4.8,-26.08464604,4.8,3.175857982
4.81,3.282,4.81,-25.9411396,4.81,3.177776681
4.82,3.29,4.82,-25.68393732,4.82,3.169280433
4.83,3.303,4.83,-22.18071147,4.83,3.14651645
4.84,3.298,4.84,-20.91828383,4.84,3.186441409
4.85,3.3,4.85,-21.60184784,4.85,3.178812334
4.86,3.292,4.86,-25.15044477,4.86,3.160394743
4.87,3.27,4.87,-25.48270784,4.87,3.15741983
4.88,3.309,4.88,-24.13817126,4.88,3.156728865
4.89,3.301,4.89,-23.33291255,4.89,3.161357619
4.9,3.283,4.9,-15.07028646,4.9,3.10789706
4.91,3.28,4.91,2.316104694,4.91,3.093498843
4.92,3.28,4.92,14.15017513,4.92,3.138061625
4.93,3.284,4.93,9.279206703,4.93,3.217602343
4.94,3.231,4.94,-3.751062368,4.94,3.270825506
4.95,3.217,4.95,-13.59837719,4.95,3.275592534
4.96,3.26,4.96,-16.40474092,4.96,3.22347703
4.97,3.337,4.97,-18.08545218,4.97,3.167295886
4.98,3.388,4.98,-16.89866753,4.98,3.166385995
4.99,3.394,4.99,-15.33181717,4.99,3.168805144
5,3.346,5,-14.14383514,5,3.144459725
5.01,3.294,5.01,-15.81886681,5.01,3.151941058
5.02,3.294,5.02,-14.43729323,5.02,3.159487108
5.03,3.295,5.03,-16.7276873,5.03,3.149596681
5.04,3.269,5.04,-19.89255078,5.04,3.143976267
5.05,3.275,5.05,-22.42287301,5.05,3.031718782
5.06,3.282,5.06,-26.01915932,5.06,2.788874276
5.07,3.272,5.07,-32.04024829,5.07,2.579319705
5.08,3.266,5.08,-28.22317188,5.08,3.490514346
5.09,3.156,5.09,-27.30643156,5.09,4.377610295
5.1,2.918,5.1,-29.12099873,5.1,3.746998713
5.11,2.711,5.11,-29.74127446,5.11,2.705409138
5.12,3.6,5.12,-28.42694845,5.12,2.573173072
5.13,4.458,5.13,-24.54312884,5.13,2.903484998
5.14,3.841,5.14,-23.13712971,5.14,3.095753544
5.15,2.842,5.15,-18.3057928,5.15,3.148103901
5.16,2.743,5.16,-20.54102122,5.16,3.182220292
5.17,3.066,5.17,-24.7867433,5.17,3.18269782
5.18,3.22,5.18,-23.67011692,5.18,3.170269194
5.19,3.247,5.19,-16.22373629,5.19,3.16361642
5.2,3.285,5.2,-20.22968057,5.2,3.141057734
5.21,3.297,5.21,-23.45873016,5.21,3.157159446
5.22,3.29,5.22,-28.00109368,5.22,3.156789878
5.23,3.285,5.23,-26.1462621,5.23,3.150886376
5.24,3.264,5.24,-25.22218878,5.24,3.12574117
5.25,3.28,5.25,-29.16773879,5.25,3.109024885
5.26,3.279,5.26,-31.00587784,5.26,3.119688211
5.27,3.273,5.27,-34.3852615,5.27,3.122564577
5.28,3.248,5.28,-35.18588959,5.28,3.152920529
5.29,3.232,5.29,-33.74218022,5.29,3.202187925
5.3,3.242,5.3,-35.81954056,5.3,3.269847076
5.31,3.244,5.31,-32.80116568,5.31,3.35846814
5.32,3.273,5.32,-31.58270428,5.32,3.397891093
5.33,3.321,5.33,-31.75342421,5.33,3.363654054
5.34,3.388,5.34,-32.78916277,5.34,3.290366405
5.35,3.476,5.35,-32.14353294,5.35,3.215178138
5.36,3.517,5.36,-34.30156702,5.36,3.128731674
5.37,3.487,5.37,-35.31104545,5.37,3.068314939
5.38,3.419,5.38,-33.76941367,5.38,3.082681715
5.39,3.348,5.39,-33.4307832,5.39,3.107383543
5.4,3.263,5.4,-31.55813396,5.4,3.108587625
5.41,3.201,5.41,-31.15615212,5.41,3.120038024
5.42,3.211,5.42,-32.35192824,5.42,3.143969048
5.43,3.231,5.43,-30.99842,5.43,3.159659252
5.44,3.229,5.44,-28.83319292,5.44,3.153110392
5.45,3.239,5.45,-28.98735725,5.45,3.145052558
5.46,3.263,5.46,-28.46648837,5.46,3.136052439
5.47,3.279,5.47,-28.20611182,5.47,3.151075488
5.48,3.273,5.48,-26.81458803,5.48,3.186176375
5.49,3.266,5.49,-25.58553683,5.49,3.184317555
5.5,3.258,5.5,-24.00384258,5.5,3.171534643
5.51,3.273,5.51,-23.51504295,5.51,3.184852856
5.52,3.307,5.52,-22.62674885,5.52,3.176007223
5.53,3.305,5.53,-21.68329593,5.53,3.166833498
5.54,3.293,5.54,-24.20818396,5.54,3.161955286
5.55,3.307,5.55,-24.84712423,5.55,3.167931854
5.56,3.299,5.56,-19.48132813,5.56,3.175526581
5.57,3.29,5.57,-16.66901127,5.57,3.163549983
5.58,3.285,5.58,-18.93018409,5.58,3.163452239
5.59,3.291,5.59,-19.62262564,5.59,3.179672972
5.6,3.298,5.6,-24.42236214,5.6,3.183786362
5.61,3.286,5.61,-22.64342935,5.61,3.185919682
5.62,3.286,5.62,-21.33772565,5.62,3.167265764
5.63,3.302,5.63,-22.21668353,5.63,3.145268735
5.64,3.306,5.64,-20.91230463,5.64,3.14127314
5.65,3.308,5.65,-3.984765272,5.65,3.158126017
5.66,3.29,5.66,18.64481503,5.66,3.160084172
5.67,3.269,5.67,20.65037314,5.67,3.0942311
5.68,3.265,5.68,8.197295604,5.68,3.091856399
5.69,3.281,5.69,-10.36609409,5.69,3.164781234
5.7,3.282,5.7,-20.72401252,5.7,3.233270434
5.71,3.217,5.71,-23.60696001,5.71,3.269861436
5.72,3.215,5.72,-21.80568211,5.72,3.259714742
5.73,3.286,5.73,-21.80383435,5.73,3.220450951
5.74,3.352,5.74,-19.96099059,5.74,3.192604778
5.75,3.387,5.75,-18.44994504,5.75,3.160633918
5.76,3.379,5.76,-19.35590327,5.76,3.151517175
5.77,3.344,5.77,-18.91816981,5.77,3.156404145
5.78,3.319,5.78,-21.66475046,5.78,3.142463409
5.79,3.288,5.79,-23.03354389,5.79,3.135242647
5.8,3.278,5.8,-26.35689162,5.8,3.147920913
5.81,3.281,5.81,-27.22281946,5.81,3.158423484
5.82,3.266,5.82,-28.06355509,5.82,3.006933412
5.83,3.258,5.83,-27.75119775,5.83,2.748514425
5.84,3.27,5.84,-24.7203305,5.84,2.587593178
5.85,3.28,5.85,-11.55914591,5.85,3.71235001
5.86,3.131,5.86,0.07288921,5.86,4.379417492
5.87,2.878,5.87,2.350267344,5.87,3.594738132
5.88,2.719,5.88,18.0841158,5.88,2.616788879
5.89,3.817,5.89,7.739073991,5.89,2.594668527
5.9,4.458,5.9,-14.65328343,5.9,2.913270387
5.91,3.694,5.91,-19.36138827,5.91,3.090589137
5.92,2.759,5.92,-13.85055265,5.92,3.143797496
5.93,2.768,5.93,-11.48670532,5.93,3.161182512
5.94,3.072,5.94,-6.61841346,5.94,3.172531307
5.95,3.21,5.95,-5.121825601,5.95,3.187238052
5.96,3.241,5.96,-5.987230354,5.96,3.193857846
5.97,3.265,5.97,-3.312834976,5.97,3.161988149
5.98,3.287,5.98,-2.363947065,5.98,3.142519019
5.99,3.306,5.99,-6.783465797,5.99,3.131072898
6,3.314,6,-16.05628144,6,3.13360803
6.01,3.284,6.01,-18.27763977,6.01,3.133887453
6.02,3.266,6.02,-19.51806956,6.02,3.122296655
6.03,3.255,6.03,-21.13673317,6.03,3.131728729
6.04,3.257,6.04,-21.06113963,6.04,3.142095659
6.05,3.256,6.05,-22.58479717,6.05,3.16054408
6.06,3.244,6.06,-22.02332307,6.06,3.209558146
6.07,3.253,6.07,-20.22298154,6.07,3.281371074
6.08,3.263,6.08,-20.02025344,6.08,3.344468965
6.09,3.281,6.09,-17.67967642,6.09,3.384066231
6.1,3.329,6.1,-17.44118386,6.1,3.368507968
6.11,3.4,6.11,-18.56969362,6.11,3.288413752
6.12,3.463,6.12,-18.2043825,6.12,3.198332139
6.13,3.504,6.13,-15.25593905,6.13,3.12492393
6.14,3.492,6.14,-15.31090993,6.14,3.092925746
6.15,3.417,6.15,-16.90521248,6.15,3.086191049
6.16,3.331,6.16,-14.78814083,6.16,3.090223773
6.17,3.259,6.17,-12.81682726,6.17,3.110268891
6.18,3.225,6.18,-9.119344598,6.18,3.114497069
6.19,3.214,6.19,-5.647931225,6.19,3.146143088
6.2,3.214,6.2,-3.592015508,6.2,3.159168745
6.21,3.231,6.21,2.46898444,6.21,3.153098048
6.22,3.234,6.22,5.739946642,6.22,3.167601258
6.23,3.265,6.23,1.320340629,6.23,3.165633221
6.24,3.278,6.24,6.644166728,6.24,3.167146872
6.25,3.273,6.25,6.022209222,6.25,3.169112886
6.26,3.288,6.26,4.676200714,6.26,3.152374453
6.27,3.287,6.27,4.988757167,6.27,3.158410422
6.28,3.289,6.28,3.984822478,6.28,3.166746623
6.29,3.291,6.29,4.151605316,6.29,3.189292267
6.3,3.275,6.3,5.411466283,6.3,3.157984297
6.31,3.281,6.31,13.33776111,6.31,3.148084272
6.32,3.289,6.32,16.95496467,6.32,3.185694354
6.33,3.311,6.33,15.58587311,6.33,3.190904522
6.34,3.28,6.34,16.1048222,6.34,3.188285015
6.35,3.271,6.35,14.94625724,6.35,3.178699253
6.36,3.308,6.36,17.93194093,6.36,3.176589037
6.37,3.313,6.37,20.1896681,6.37,3.169499976
6.38,3.31,6.38,17.95927579,6.38,3.155450259
6.39,3.301,6.39,12.21307354,6.39,3.165981369
6.4,3.3,6.4,7.262702679,6.4,3.158212952
6.41,3.293,6.41,6.916771028,6.41,3.154369722
6.42,3.279,6.42,9.447229019,6.42,3.147585299
6.43,3.289,6.43,11.65211039,6.43,3.14951219
6.44,3.281,6.44,13.17716277,6.44,3.163164955
6.45,3.277,6.45,14.76277847,6.45,3.147082456
6.46,3.27,6.46,12.63613353,6.46,3.111322238
6.47,3.272,6.47,12.35312392,6.47,3.096947381
6.48,3.285,6.48,12.0596159,6.48,3.158502411
6.49,3.269,6.49,11.97574255,6.49,3.238369834
6.5,3.234,6.5,11.17428097,6.5,3.290821579
6.51,3.22,6.51,8.015204098,6.51,3.291246496
6.52,3.28,6.52,7.849544663,6.52,3.222335668
6.53,3.357,6.53,3.750261739,6.53,3.152921855
6.54,3.408,6.54,4.925640581,6.54,3.135981352
6.55,3.41,6.55,11.81663523,6.55,3.144018065
6.56,3.346,6.56,19.56638724,6.56,3.167476131
6.57,3.281,6.57,30.66894445,6.57,3.152177564
6.58,3.265,6.58,47.75990847,6.58,3.134840728
6.59,3.271,6.59,55.04122364,6.59,3.151909091
6.6,3.291,6.6,59.14592464,6.6,3.157026802
6.61,3.274,6.61,61.08935605,6.61,3.028064339
6.62,3.257,6.62,61.11445554,6.62,2.770979146
6.63,3.274,6.63,54.51973075,6.63,2.571938544
6.64,3.279,6.64,53.54321216,6.64,3.694333901
6.65,3.152,6.65,49.51257517,6.65,4.378675751
6.66,2.9,6.66,44.37648209,6.66,3.618068014
6.67,2.704,6.67,35.94870722,6.67,2.594094602
6.68,3.8,6.68,29.45884521,6.68,2.542733357
6.69,4.458,6.69,26.04768646,6.69,2.919246599
6.7,3.717,6.7,22.53910177,6.7,3.117626323
6.71,2.736,6.71,16.5121592,6.71,3.167638613
6.72,2.717,6.72,12.00392938,6.72,3.165225538
6.73,3.078,6.73,9.872552577,6.73,3.156330672
6.74,3.236,6.74,9.243674526,6.74,3.176904835
6.75,3.263,6.75,7.116373503,6.75,3.178117524
6.76,3.268,6.76,7.617080115,6.76,3.177526939
6.77,3.272,6.77,8.155158953,6.77,3.157627462
6.78,3.297,6.78,8.76348292,6.78,3.143592841
6.79,3.299,6.79,10.23224349,6.79,3.146857621
6.8,3.299,6.8,10.68477481,6.8,3.102518584
6.81,3.28,6.81,11.16953262,6.81,3.116332301
6.82,3.267,6.82,10.77024642,6.82,3.12451419
6.83,3.27,6.83,8.699823608,6.83,3.135123744
6.84,3.226,6.84,12.15764808,6.84,3.17174464
6.85,3.239,6.85,13.9790552,6.85,3.216061274
6.86,3.246,6.86,14.33568371,6.86,3.267265283
6.87,3.256,6.87,14.11942743,6.87,3.328066403
6.88,3.291,6.88,17.1222,6.88,3.369598641
6.89,3.335,6.89,16.76343089,6.89,3.348385442
6.9,3.386,6.9,17.41400587,6.9,3.292276973
6.91,3.447,6.91,17.87026002,6.91,3.23091936
6.92,3.49,6.92,20.39666532,6.92,3.16236144
6.93,3.472,6.93,25.84209016,6.93,3.09814756
6.94,3.42,6.94,24.58318099,6.94,3.06774281
6.95,3.362,6.95,26.48185456,6.95,3.079495336
6.96,3.295,6.96,27.54793798,6.96,3.100253015
6.97,3.23,6.97,28.78318801,6.97,3.114738705
6.98,3.197,6.98,29.20598138,6.98,3.139765742
6.99,3.205,6.99,27.1828843,6.99,3.159541078
7,3.222,7,23.4331881,7,3.152440832
7.01,3.234,7.01,23.05382499,7.01,3.161591846
7.02,3.258,7.02,25.23620494,7.02,3.159712198
7.03,3.278,7.03,29.32107773,7.03,3.147873738
7.04,3.272,7.04,28.71226267,7.04,3.177429759
7.05,3.282,7.05,28.9985423,7.05,3.184555569
7.06,3.281,7.06,30.32667401,7.06,3.187375494
7.07,3.27,7.07,34.75635878,7.07,3.17795573
7.08,3.299,7.08,43.44867951,7.08,3.170847132
7.09,3.306,7.09,40.88521745,7.09,3.157478835
7.1,3.309,7.1,32.30323601,7.1,3.155554618
7.11,3.3,7.11,20.90740389,7.11,3.170369121
7.12,3.294,7.12,16.69048254,7.12,3.173868341
7.13,3.281,7.13,17.8990892,7.13,3.152645976
7.14,3.279,7.14,17.84023592,7.14,3.169705175
7.15,3.293,7.15,19.24635215,7.15,3.181877014
7.16,3.296,7.16,18.02963983,7.16,3.176789835
7.17,3.275,7.17,16.45235939,7.17,3.189140491
7.18,3.292,7.18,16.58774011,7.18,3.171262658
7.19,3.304,7.19,15.74180391,7.19,3.159555851
7.2,3.299,7.2,16.64889967,7.2,3.149552804
7.21,3.311,7.21,14.84021119,7.21,3.156762334
7.22,3.294,7.22,8.9212138,7.22,3.157586606
7.23,3.283,7.23,4.116196872,7.23,3.152843421
7.24,3.273,7.24,1.880210558,7.24,3.174404935
7.25,3.28,7.25,8.15050854,7.25,3.109112822
7.26,3.28,7.26,9.850287073,7.26,3.086255477
7.27,3.275,7.27,10.54321718,7.27,3.138998274
7.28,3.296,7.28,14.27096492,7.28,3.208190671
7.29,3.232,7.29,29.11064696,7.29,3.268826991
7.3,3.21,7.3,40.02872985,7.3,3.290178945
7.31,3.261,7.31,41.88054299,7.31,3.239968795
7.32,3.328,7.32,38.48565414,7.32,3.162306756
7.33,3.386,7.33,27.72811061,7.33,3.13639825
7.34,3.408,7.34,21.55556008,7.34,3.161026372
7.35,3.362,7.35,25.81441671,7.35,3.16083601
7.36,3.289,7.36,29.08412308,7.36,3.163900395
7.37,3.265,7.37,29.53980179,7.37,3.147954772
7.38,3.288,7.38,27.12975252,7.38,3.148316688
7.39,3.285,7.39,22.44565676,7.39,3.158832837
7.4,3.286,7.4,20.9372287,7.4,3.072427464
7.41,3.27,7.41,17.70617582,7.41,2.875740821
7.42,3.271,7.42,14.43053044,7.42,2.624590399
7.43,3.281,7.43,12.12884309,7.43,3.266054312
7.44,3.196,7.44,11.96283071,7.44,4.373844012
7.45,3.003,7.45,9.380877289,7.45,3.966501554
7.46,2.756,7.46,7.527514831,7.46,2.767271682
7.47,3.382,7.47,7.948732881,7.47,2.481252226
7.48,4.458,7.48,8.547342302,7.48,2.790913979
7.49,4.056,7.49,9.92901304,7.49,3.052289526
7.5,2.9,7.5,10.53117017,7.5,3.141343313
7.51,2.65,7.51,11.85607893,7.51,3.157475245
7.52,2.96,7.52,10.97972937,7.52,3.167936922
7.53,3.183,7.53,12.65699194,7.53,3.178970242
7.54,3.239,7.54,14.52242643,7.54,3.194154832
7.55,3.256,7.55,16.73956453,7.55,3.173718558
7.56,3.279,7.56,18.75479781,7.56,3.164318991
7.57,3.297,7.57,18.54649752,7.57,3.168923882
7.58,3.314,7.58,18.82262009,7.58,3.148498972
7.59,3.295,7.59,20.03556356,7.59,3.115383681
7.6,3.287,7.6,20.83839745,7.6,3.110655463
7.61,3.292,7.61,21.83329919,7.61,3.121526201
7.62,3.272,7.62,21.69605695,7.62,3.125764789
7.63,3.239,7.63,30.59773293,7.63,3.158214444
7.64,3.234,7.64,32.0863901,7.64,3.210221869
7.65,3.244,7.65,33.60813708,7.65,3.259495236
7.66,3.247,7.66,33.63874204,7.66,3.329612115
7.67,3.278,7.67,33.06805956,7.67,3.380377534
7.68,3.329,7.68,33.76567367,7.68,3.363979605
7.69,3.378,7.69,34.39715657,7.69,3.305620456
7.7,3.448,7.7,34.07210558,7.7,3.224419986
7.71,3.5,7.71,33.83734758,7.71,3.13614405
7.72,3.487,7.72,36.5886669,7.72,3.090414591
7.73,3.433,7.73,38.02661718,7.73,3.082116988
7.74,3.356,7.74,35.19890174,7.74,3.094472524
7.75,3.27,7.75,33.83452914,7.75,3.111073006
7.76,3.223,7.76,34.04850321,7.76,3.133890186
7.77,3.211,7.77,36.44040671,7.77,3.140071059
7.78,3.219,7.78,49.50031812,7.78,3.139330572
7.79,3.232,7.79,62.28508248,7.79,3.147718614
7.8,3.253,7.8,57.96042174,7.8,3.144005152
7.81,3.259,7.81,45.49500579,7.81,3.156937734
7.82,3.259,7.82,32.6581331,7.82,3.179305563
7.83,3.268,7.83,29.58060601,7.83,3.177938304
7.84,3.265,7.84,29.62174339,7.84,3.182566474
7.85,3.278,7.85,29.63861747,7.85,3.154369085
7.86,3.3,7.86,29.72781885,7.86,3.165845938
7.87,3.299,7.87,28.06520996,7.87,3.178486675
7.88,3.304,7.88,28.27637698,7.88,3.173515874
7.89,3.277,7.89,29.94994328,7.89,3.176938736
7.9,3.289,7.9,28.0842135,7.9,3.164271864
7.91,3.301,7.91,27.98531055,7.91,3.178203073
7.92,3.296,7.92,20.84240785,7.92,3.183621104
7.93,3.299,7.93,16.09281578,7.93,3.167209105
7.94,3.287,7.94,17.52013639,7.94,3.166183453
7.95,3.301,7.95,21.50055648,7.95,3.158828274
7.96,3.306,7.96,22.49847726,7.96,3.170145995
7.97,3.29,7.97,21.6394354,7.97,3.160557559
7.98,3.289,7.98,34.934803,7.98,3.16049314
7.99,3.282,7.99,48.55313476,7.99,3.153540102
8,3.293,8,57.13206153,8,3.168657849
8.01,3.283,8.01,59.3410881,8.01,3.158897248
8.02,3.283,8.02,44.92375652,8.02,3.116951162
8.03,3.276,8.03,27.54571775,8.03,3.089434741
8.04,3.291,8.04,27.46501352,8.04,3.162110421
8.05,3.281,8.05,31.79998909,8.05,3.229907952
8.06,3.24,8.06,35.09417924,8.06,3.266214484
8.07,3.213,8.07,36.11825583,8.07,3.276149248
8.08,3.284,8.08,34.76715421,8.08,3.212491676
8.09,3.349,8.09,30.43980532,8.09,3.173094382
8.1,3.384,8.1,28.7067466,8.1,3.142193956
8.11,3.395,8.11,25.68700178,8.11,3.145327417
8.12,3.336,8.12,22.7458578,8.12,3.153113734
8.13,3.3,8.13,19.92835011,8.13,3.151513017
8.14,3.27,8.14,15.57817868,8.14,3.148156621
8.15,3.272,8.15,14.40248957,8.15,3.141943065
8.16,3.277,8.16,13.25816042,8.16,3.141896126
8.17,3.274,8.17,12.80456306,8.17,3.001475722
8.18,3.27,8.18,12.08425157,8.18,2.737298253
8.19,3.264,8.19,11.89183632,8.19,2.655331012
8.2,3.264,8.2,13.39766962,8.2,3.953785628
8.21,3.126,8.21,13.86191527,8.21,4.379352598
8.22,2.867,8.22,13.20848401,8.22,3.36095872
8.23,2.785,8.23,13.09221953,8.23,2.536223499
8.24,4.053,8.24,14.37826494,8.24,2.629121362
8.25,4.458,8.25,16.01989868,8.25,2.959822648
8.26,3.469,8.26,16.68764212,8.26,3.125073532
8.27,2.686,8.27,15.12751584,8.27,3.158962506
8.28,2.805,8.28,14.72358645,8.28,3.163199496
8.29,3.113,8.29,14.10312619,8.29,3.178908503
8.3,3.237,8.3,14.26850397,8.3,3.186224064
8.31,3.255,8.31,13.97997091,8.31,3.176969263
8.32,3.269,8.32,17.49227345,8.32,3.169860827
8.33,3.295,8.33,22.72343391,8.33,3.153782042
8.34,3.306,8.34,21.41100029,8.34,3.148554984
8.35,3.298,8.35,20.83545837,8.35,3.114438951
8.36,3.292,8.36,19.80516841,8.36,3.120939433
8.37,3.277,8.37,20.77029787,8.37,3.12810538
8.38,3.272,8.38,21.50583227,8.38,3.118504664
8.39,3.238,8.39,19.07144554,8.39,3.149818019
8.4,3.244,8.4,16.37430144,8.4,3.175280779
8.41,3.25,8.41,15.41505648,8.41,3.205444871
8.42,3.24,8.42,10.75365933,8.42,3.291586547
8.43,3.27,8.43,6.575276561,8.43,3.367589661
8.44,3.295,8.44,4.407961315,8.44,3.390779068
8.45,3.325,8.45,13.79378711,8.45,3.337542669
8.46,3.41,8.46,29.36487997,8.46,3.259040855
8.47,3.486,8.47,36.00536588,8.47,3.181665162
8.48,3.511,8.48,34.65491185,8.48,3.122534148
8.49,3.462,8.49,20.73467798,8.49,3.094445054
8.5,3.389,8.5,6.374261192,8.5,3.071981665
8.51,3.315,8.51,2.639697385,8.51,3.083540892
8.52,3.256,8.52,4.135499164,8.52,3.114646653
8.53,3.225,8.53,5.005785201,8.53,3.134218846
8.54,3.199,8.54,3.576728726,8.54,3.145642903
8.55,3.207,8.55,1.958255887,8.55,3.144729963
8.56,3.235,8.56,-2.916919141,8.56,3.158782091
8.57,3.253,8.57,-3.580901445,8.57,3.156110776
8.58,3.264,8.58,-6.992940279,8.58,3.171869603
8.59,3.264,8.59,-8.491965249,8.59,3.168654485
8.6,3.279,8.6,-14.42160516,8.6,3.169024761
8.61,3.277,8.61,-22.81786674,8.61,3.176016401
8.62,3.293,8.62,-21.99864886,8.62,3.181735251
8.63,3.29,8.63,-18.75578253,8.63,3.167440159
8.64,3.291,8.64,-14.75235487,8.64,3.152899151
8.65,3.298,8.65,-18.33903651,8.65,3.168080347
8.66,3.304,8.66,-13.23804598,8.66,3.173489996
8.67,3.29,8.67,-3.952303265,8.67,3.184070322
8.68,3.276,8.68,4.517617406,8.68,3.181119607
8.69,3.291,8.69,-0.389907783,8.69,3.187591043
8.7,3.296,8.7,-3.449859792,8.7,3.173092312
8.71,3.306,8.71,-8.966028806,8.71,3.170671075
8.72,3.303,8.72,-13.97753831,8.72,3.189208017
8.73,3.31,8.73,-9.638485939,8.73,3.153637641
8.74,3.296,8.74,-7.089698317,8.74,3.16896753
8.75,3.294,8.75,-6.07834413,8.75,3.169336723
8.76,3.312,8.76,-9.894712217,8.76,3.147737391
8.77,3.277,8.77,-11.64835384,8.77,3.155558513
8.78,3.292,8.78,-13.65993717,8.78,3.158547448
8.79,3.292,8.79,-16.70860894,8.79,3.153676466
8.8,3.271,8.8,-19.45036004,8.8,3.090897796
8.81,3.278,8.81,-21.13143541,8.81,3.081386043
8.82,3.281,8.82,-22.66855154,8.82,3.1455275
8.83,3.276,8.83,-22.67548081,8.83,3.221357762
8.84,3.214,8.84,-20.97207925,8.84,3.265270481
8.85,3.205,8.85,-20.30331971,8.85,3.280851349
8.86,3.267,8.86,-19.69304577,8.86,3.233535938
8.87,3.34,8.87,-20.72260341,8.87,3.184582656
8.88,3.382,8.88,-20.55273957,8.88,3.158211844
8.89,3.399,8.89,-19.82315537,8.89,3.152929721
8.9,3.356,8.9,-16.0362039,8.9,3.147056765
8.91,3.311,8.91,-15.78210311,8.91,3.142661516
8.92,3.286,8.92,-17.64271767,8.92,3.157833514
8.93,3.28,8.93,-18.17992474,8.93,3.170491399
8.94,3.272,8.94,-17.79910472,8.94,3.167563959
8.95,3.266,8.95,-16.15264435,8.95,3.085773272
8.96,3.28,8.96,-16.43354109,8.96,2.858735726
8.97,3.292,8.97,-16.20235648,8.97,2.606300566
8.98,3.289,8.98,-14.23516963,8.98,3.167980957
8.99,3.209,8.99,-10.11029057,8.99,4.3737276
9,2.987,9,-8.007241431,9,4.045173383
9.01,2.739,9.01,-5.591499756,9.01,2.800033063
9.02,3.286,9.02,-0.47420766,9.02,2.45939637
9.03,4.458,9.03,0.069567858,9.03,2.774937479
9.04,4.131,9.04,0.048960294,9.04,3.050047133
9.05,2.93,9.05,-1.696018909,9.05,3.141083295
9.06,2.627,9.06,0.580783317,9.06,3.164452518
9.07,2.946,9.07,2.265155012,9.07,3.191788947
9.08,3.183,9.08,-0.277919109,9.08,3.185056095
9.09,3.239,9.09,-3.798362623,9.09,3.169252884
9.1,3.262,9.1,-4.140614432,9.1,3.172010865
9.11,3.302,9.11,-0.694786414,9.11,3.167015403
9.12,3.303,9.12,0.806932116,9.12,3.172212185
9.13,3.29,9.13,0.643811597,9.13,3.143031337
9.14,3.294,9.14,0.93514813,9.14,3.121416437
9.15,3.29,9.15,3.172334154,9.15,3.124906209
9.16,3.295,9.16,11.99686849,9.16,3.116384211
9.17,3.266,9.17,16.69928432,9.17,3.127642957
9.18,3.245,9.18,12.44430788,9.18,3.148739268
9.19,3.248,9.19,4.22778593,9.19,3.199658512
9.2,3.239,9.2,-4.822180645,9.2,3.253601924
9.21,3.249,9.21,-8.244666665,9.21,3.320663616
9.22,3.269,9.22,-6.905603642,9.22,3.386970094
9.23,3.319,9.23,-7.696258327,9.23,3.373685125
9.24,3.372,9.24,-5.565719353,9.24,3.303820758
9.25,3.439,9.25,-7.862983231,9.25,3.225450028
9.26,3.506,9.26,-9.614896069,9.26,3.163390947
9.27,3.496,9.27,-7.41149967,9.27,3.116755611
9.28,3.431,9.28,-10.60411349,9.28,3.078747115
9.29,3.357,9.29,-8.564566446,9.29,3.093605504
9.3,3.297,9.3,-11.1197168,9.3,3.103844086
9.31,3.249,9.31,-17.74323584,9.31,3.113826396
9.32,3.208,9.32,-16.52485783,9.32,3.12796467
9.33,3.219,9.33,-11.84610501,9.33,3.123381228
9.34,3.226,9.34,-8.977338138,9.34,3.135076005
9.35,3.234,9.35,-7.258725045,9.35,3.141881395
9.36,3.247,9.36,14.66254275,9.36,3.162815648
9.37,3.243,9.37,32.20311997,9.37,3.18307494
9.38,3.255,9.38,37.12867453,9.38,3.182355474
9.39,3.262,9.39,26.4823366,9.39,3.176420724
9.4,3.283,9.4,15.18896259,9.4,3.172449661
9.41,3.303,9.41,10.98152269,9.41,3.176037721
9.42,3.303,9.42,12.10298719,9.42,3.185347748
9.43,3.298,9.43,14.73312923,9.43,3.156956688
9.44,3.295,9.44,15.32582995,9.44,3.164911912
9.45,3.299,9.45,7.926461746,9.45,3.17735495
9.46,3.308,9.46,2.439934029,9.46,3.162158046
9.47,3.28,9.47,-2.480235085,9.47,3.170739515
9.48,3.288,9.48,-5.398972581,9.48,3.187915443
9.49,3.3,9.49,-8.690221341,9.49,3.18365819
9.5,3.285,9.5,-13.45519319,9.5,3.171442485
9.51,3.293,9.51,-18.17273261,9.51,3.163848026
9.52,3.31,9.52,-19.94878405,9.52,3.160546428
9.53,3.306,9.53,-21.09320367,9.53,3.172159364
9.54,3.294,9.54,-20.36765019,9.54,3.174720931
9.55,3.287,9.55,-21.64248497,9.55,3.155429357
9.56,3.284,9.56,-21.77244392,9.56,3.15219899
9.57,3.295,9.57,-18.54977011,9.57,3.163363258
9.58,3.297,9.58,-21.64731429,9.58,3.157565984
9.59,3.278,9.59,-24.23507615,9.59,3.158973251
9.6,3.275,9.6,-22.8857482,9.6,3.095787463
9.61,3.286,9.61,-22.93255666,9.61,3.065823857
9.62,3.28,9.62,-27.65671818,9.62,3.151472241
9.63,3.281,9.63,-25.59978459,9.63,3.236682517
9.64,3.219,9.64,-25.93318049,9.64,3.285697748
9.65,3.19,9.65,-24.74658257,9.65,3.309537231
9.66,3.273,9.66,-24.36763194,9.66,3.236975014
9.67,3.355,9.67,-23.36421629,9.67,3.1711899
9.68,3.402,9.68,-22.0353735,9.68,3.128579217
9.69,3.427,9.69,-21.41437941,9.69,3.136905245
9.7,3.36,9.7,-17.95787364,9.7,3.149569573
9.71,3.299,9.71,-18.31690835,9.71,3.143675637
9.72,3.258,9.72,-17.76346067,9.72,3.155761153
9.73,3.265,9.73,-21.15036058,9.73,3.143350688
9.74,3.274,9.74,-19.94272956,9.74,3.146074364
9.75,3.266,9.75,-18.22450933,9.75,3.058665802
9.76,3.277,9.76,-21.42900955,9.76,2.840129084
9.77,3.265,9.77,-24.85650951,9.77,2.590427366
9.78,3.268,9.78,-25.02015161,9.78,3.442409006
9.79,3.182,9.79,-21.91051524,9.79,4.375800911
9.8,2.968,9.8,-21.62336778,9.8,3.859294191
9.81,2.722,9.81,-24.64211921,9.81,2.633761544
9.82,3.554,9.82,-24.83971399,9.82,2.426752986
9.83,4.458,9.83,-22.19216848,9.83,2.810735947
9.84,3.952,9.84,-21.16481311,9.84,3.071293009
9.85,2.771,9.85,-19.51719925,9.85,3.15265042
9.86,2.6,9.86,-20.95685937,9.86,3.161497115
9.87,2.976,9.87,-26.2802013,9.87,3.182474128
9.88,3.196,9.88,-33.96035935,9.88,3.197858822
9.89,3.246,9.89,-36.59800121,9.89,3.191690751
9.9,3.259,9.9,-35.05208113,9.9,3.184307897
9.91,3.294,9.91,-36.08564845,9.91,3.159588597
9.92,3.316,9.92,-34.14766522,9.92,3.133583309
9.93,3.312,9.93,-35.15076838,9.93,3.140196572
9.94,3.306,9.94,-37.20256696,9.94,3.135018079
9.95,3.283,9.95,-34.69179558,9.95,3.124727531
9.96,3.258,9.96,-37.39019786,9.96,3.095837677
9.97,3.264,9.97,-34.63877807,9.97,3.124395099
9.98,3.258,9.98,-35.64931289,9.98,3.167060862
9.99,3.247,9.99,-40.80686818,9.99,3.228651687
10,3.218,10,-39.67155109,10,3.276455438
10.01,3.246,10.01,-33.09879897,10.01,3.331299705
10.02,3.287,10.02,-23.18998394,10.02,3.389791532
10.03,3.347,10.03,-11.20723601,10.03,3.384628307
10.04,3.394,10.04,-3.131373054,10.04,3.325428897
10.05,3.45,10.05,11.9898492,10.05,3.222914194
10.06,3.51,10.06,28.78685968,10.06,3.120949012
10.07,3.508,10.07,37.65767403,10.07,3.071144703
10.08,3.453,10.08,36.159131,10.08,3.066453876
10.09,3.355,10.09,34.81956682,10.09,3.092921625
10.1,3.256,10.1,18.06800281,10.1,3.114014518
10.11,3.205,10.11,10.63263496,10.11,3.127529638
10.12,3.196,10.12,-3.133762236,10.12,3.14862487
10.13,3.217,10.13,-12.90472016,10.13,3.14152674
10.14,3.234,10.14,-16.95022598,10.14,3.150709175
10.15,3.246,10.15,-24.23305151,10.15,3.149149603
10.16,3.267,10.16,-29.60429244,10.16,3.135244603
10.17,3.261,10.17,-32.93253756,10.17,3.164794996
10.18,3.271,10.18,-35.42583286,10.18,3.177048748
10.19,3.27,10.19,-38.28594777,10.19,3.189087472
10.2,3.257,10.2,-37.46326366,10.2,3.177631603
10.21,3.286,10.21,-37.99387789,10.21,3.16520118
10.22,3.298,10.22,-37.32908653,10.22,3.180110156
10.23,3.31,10.23,-34.61930791,10.23,3.181180796
10.24,3.299,10.24,-35.06486321,10.24,3.160021381
10.25,3.288,10.25,-33.32771166,10.25,3.156962576
10.26,3.303,10.26,-33.60406032,10.26,3.16500421
10.27,3.304,10.27,-31.81385456,10.27,3.188816885
10.28,3.283,10.28,-28.76529412,10.28,3.187351113
10.29,3.28,10.29,-34.80163559,10.29,3.168595105
10.3,3.288,10.3,-35.57570492,10.3,3.170032283
10.31,3.311,10.31,-32.60567366,10.31,3.15645872
10.32,3.309,10.32,-32.8841345,10.32,3.158765698
10.33,3.291,10.33,-32.61118254,10.33,3.163525665
10.34,3.293,10.34,-30.14251365,10.34,3.150401387
10.35,3.28,10.35,-29.06200104,10.35,3.165923496
10.36,3.282,10.36,-27.93589332,10.36,3.160955869
10.37,3.286,10.37,-25.13657455,10.37,3.182201107
10.38,3.273,10.38,-24.44768073,10.38,3.118253915
10.39,3.288,10.39,-19.7520441,10.39,3.066439847
10.4,3.283,10.4,-12.19192722,10.4,3.130300234
10.41,3.304,10.41,-6.246664688,10.41,3.198929994
10.42,3.241,10.42,-6.482592517,10.42,3.253682889
10.43,3.191,10.43,-5.161637516,10.43,3.305204725
10.44,3.253,10.44,0.144781726,10.44,3.258955759
10.45,3.319,10.45,-3.748098869,10.45,3.173834429
10.46,3.371,10.46,-13.71961546,10.46,3.153674709
10.47,3.422,10.47,-18.91814669,10.47,3.144939407
10.48,3.38,10.48,-19.89591643,10.48,3.137426683
10.49,3.3,10.49,-12.88392461,10.49,3.143116554
10.5,3.282,10.5,-8.394475588,10.5,3.170427762
10.51,3.273,10.51,-6.4693422,10.51,3.152514127
10.52,3.263,10.52,-7.898931361,10.52,3.15534453
10.53,3.266,10.53,-5.116363392,10.53,3.097048282
10.54,3.292,10.54,-0.007146599,10.54,2.912922761
10.55,3.274,10.55,6.705002395,10.55,2.671181757
10.56,3.277,10.56,6.572730325,10.56,3.032941595
10.57,3.22,10.57,-0.113340297,10.57,4.355940281
10.58,3.04,10.58,-10.87706957,10.58,4.217006103
10.59,2.802,10.59,-17.14987841,10.59,2.946797805
10.6,3.154,10.6,-15.71919087,10.6,2.410097081
10.61,4.443,10.61,-14.88840504,10.61,2.679612215
10.62,4.3,10.62,-12.73670327,10.62,2.999799382
10.63,3.073,10.63,-10.47574668,10.63,3.147298614
10.64,2.577,10.64,-12.31787839,10.64,3.183227791
10.65,2.857,10.65,-12.18498561,10.65,3.187729801
10.66,3.14,10.66,-11.82557112,10.66,3.173646682
10.67,3.247,10.67,-12.75043782,10.67,3.19537326
10.68,3.277,10.68,-15.40614554,10.68,3.185213361
10.69,3.295,10.69,-17.96963891,10.69,3.147658654
10.7,3.291,10.7,-9.051734737,10.7,3.146402148
10.71,3.316,10.71,-7.809246819,10.71,3.133156992
10.72,3.307,10.72,-10.64196357,10.72,3.138026184
10.73,3.271,10.73,-6.334465565,10.73,3.108686367
10.74,3.27,10.74,-2.726677601,10.74,3.112846659
10.75,3.257,10.75,8.90604295,10.75,3.127901987
10.76,3.261,10.76,7.7053905,10.76,3.161870429
10.77,3.231,10.77,6.291262497,10.77,3.209406514
10.78,3.235,10.78,0.617835934,10.78,3.253534249
10.79,3.249,10.79,-3.565730323,10.79,3.302991313
10.8,3.282,10.8,-5.601697258,10.8,3.372148372
10.81,3.328,10.81,-2.881595928,10.81,3.389970463
10.82,3.372,10.82,-0.713009964,10.82,3.343084193
10.83,3.422,10.83,3.15990981,10.83,3.230075647
10.84,3.492,10.84,0.452267061,10.84,3.142559845
10.85,3.512,10.85,-0.970362615,10.85,3.107442182
10.86,3.469,10.86,-2.056990266,10.86,3.074856682
10.87,3.361,10.87,-4.554090109,10.87,3.079653013
10.88,3.277,10.88,-6.852409288,10.88,3.099439689
10.89,3.241,10.89,-9.279341746,10.89,3.123477066
10.9,3.205,10.9,-10.71486959,10.9,3.135505912
10.91,3.205,10.91,-10.97050505,10.91,3.136979315
10.92,3.221,10.92,-10.11700498,10.92,3.158445375
10.93,3.243,10.93,-9.19593665,10.93,3.166862473
10.94,3.254,10.94,-7.991491954,10.94,3.163144352
10.95,3.256,10.95,-6.583056465,10.95,3.178903766
10.96,3.278,10.96,-6.419168443,10.96,3.162951136
10.97,3.287,10.97,-4.804566818,10.97,3.170606058
10.98,3.284,10.98,-4.510579398,10.98,3.166622361
10.99,3.3,10.99,-4.832619972,10.99,3.149962728
11,3.285,11,-4.783428442,11,3.16760347
11.01,3.293,11.01,-3.117671589,11.01,3.169780603
11.02,3.289,11.02,-1.07612975,11.02,3.169879581
11.03,3.273,11.03,-1.140874791,11.03,3.176146341
11.04,3.29,11.04,0.220678966,11.04,3.182791517
11.05,3.292,11.05,1.539552805,11.05,3.18367999
11.06,3.292,11.06,3.155946202,11.06,3.169208981
11.07,3.298,11.07,5.557165817,11.07,3.185185443
11.08,3.305,11.08,8.303756303,11.08,3.165873311
11.09,3.306,11.09,8.58792357,11.09,3.158622944
11.1,3.292,11.1,13.80105732,11.1,3.172295609
11.11,3.308,11.11,13.84101013,11.11,3.161078976
11.12,3.289,11.12,11.38058447,11.12,3.158425865
11.13,3.282,11.13,9.293575867,11.13,3.152468257
11.14,3.295,11.14,12.29104363,11.14,3.101342264
11.15,3.284,11.15,17.60642492,11.15,3.093496331
11.16,3.281,11.16,15.3488243,11.16,3.146422769
11.17,3.275,11.17,9.587516604,11.17,3.215931549
11.18,3.225,11.18,11.11632405,11.18,3.256591649
11.19,3.217,11.19,15.05407467,11.19,3.260170709
11.2,3.268,11.2,16.91428979,11.2,3.227540008
11.21,3.335,11.21,16.39277361,11.21,3.183106965
11.22,3.374,11.22,17.71007529,11.22,3.160874857
11.23,3.379,11.23,19.39317814,11.23,3.153619826
11.24,3.35,11.24,21.63539912,11.24,3.137031407
11.25,3.309,11.25,24.19972581,11.25,3.138581015
11.26,3.288,11.26,23.22465898,11.26,3.142634655
11.27,3.28,11.27,18.82011333,11.27,3.155378842
11.28,3.262,11.28,12.31334923,11.28,3.143637405
11.29,3.262,11.29,9.893490141,11.29,3.043477903
11.3,3.265,11.3,9.991260291,11.3,2.824993522
11.31,3.277,11.31,12.28283513,11.31,2.643335448
11.32,3.265,11.32,12.46191738,11.32,3.593963495
11.33,3.167,11.33,14.0365165,11.33,4.376051143
11.34,2.953,11.34,13.41612233,11.34,3.688388839
11.35,2.774,11.35,12.0518606,11.35,2.631574527
11.36,3.702,11.36,13.21737225,11.36,2.509819813
11.37,4.458,11.37,13.68188564,11.37,2.862435393
11.38,3.787,11.38,7.704834751,11.38,3.080819842
11.39,2.773,11.39,9.666234872,11.39,3.152599736
11.4,2.683,11.4,9.841557251,11.4,3.163434774
11.41,3.024,11.41,9.437532944,11.41,3.163692672
11.42,3.202,11.42,8.507273588,11.42,3.18835963
11.43,3.248,11.43,10.5831142,11.43,3.205050173
11.44,3.264,11.44,12.24232457,11.44,3.183592145
11.45,3.277,11.45,23.72791125,11.45,3.170189545
11.46,3.307,11.46,35.43082104,11.46,3.146927018
11.47,3.325,11.47,38.49934194,11.47,3.131573223
11.48,3.305,11.48,31.97977326,11.48,3.123450666
11.49,3.293,11.49,17.42098198,11.49,3.107012487
11.5,3.271,11.5,14.94622754,11.5,3.114071388
11.51,3.256,11.51,20.65531161,11.51,3.135301737
11.52,3.247,11.52,24.73757427,11.52,3.174512967
11.53,3.23,11.53,25.00734827,11.53,3.219535181
11.54,3.236,11.54,23.55661152,11.54,3.277699004
11.55,3.256,11.55,20.54750833,11.55,3.362656161
11.56,3.294,11.56,20.17995035,11.56,3.378579578
11.57,3.338,11.57,18.0844722,11.57,3.331326583
11.58,3.396,11.58,16.3175969,11.58,3.268856195
11.59,3.481,11.59,14.15075668,11.59,3.196381924
11.6,3.499,11.6,14.30341739,11.6,3.143246562
11.61,3.456,11.61,13.34338637,11.61,3.104501072
11.62,3.398,11.62,15.3391551,11.62,3.093648887
11.63,3.329,11.63,16.54930391,11.63,3.09599254
11.64,3.276,11.64,16.22563381,11.64,3.113621198
11.65,3.235,11.65,17.25121348,11.65,3.126256347
11.66,3.221,11.66,17.3485387,11.66,3.148882337
11.67,3.22,11.67,19.15773041,11.67,3.158757884
11.68,3.235,11.68,19.1638602,11.68,3.168041103
11.69,3.246,11.69,20.31784117,11.69,3.155029626
11.7,3.268,11.7,22.79963416,11.7,3.14591274
11.71,3.278,11.71,23.60443993,11.71,3.141566632
11.72,3.288,11.72,24.30971492,11.72,3.150762341
11.73,3.276,11.73,25.21298361,11.73,3.179851018
11.74,3.268,11.74,26.82374351,11.74,3.173958368
11.75,3.264,11.75,27.04698239,11.75,3.174491092
11.76,3.273,11.76,28.54023617,11.76,3.172881008
11.77,3.301,11.77,30.17304888,11.77,3.179307732
11.78,3.295,11.78,31.43689959,11.78,3.178476146
11.79,3.296,11.79,34.7668457,11.79,3.168157783
11.8,3.295,11.8,34.14786526,11.8,3.184372823
11.81,3.302,11.81,32.8248964,11.81,3.15483598
11.82,3.301,11.82,36.81228875,11.82,3.159782487
11.83,3.291,11.83,41.99097956,11.83,3.19799745
11.84,3.307,11.84,40.91835892,11.84,3.172545104
11.85,3.278,11.85,40.44348609,11.85,3.156316341
11.86,3.283,11.86,38.00641192,11.86,3.127408806
11.87,3.32,11.87,33.77492055,11.87,3.073934121
11.88,3.295,11.88,30.92788456,11.88,3.089447774
11.89,3.279,11.89,31.50049871,11.89,3.174771982
11.9,3.251,11.9,34.27167627,11.9,3.238552101
11.91,3.199,11.91,36.04508202,11.91,3.268226946
11.92,3.213,11.92,43.35977058,11.92,3.263638874
11.93,3.295,11.93,54.17433566,11.93,3.214063926
11.94,3.356,11.94,53.14222319,11.94,3.167981321
11.95,3.385,11.95,44.39222341,11.95,3.149442427
11.96,3.383,11.96,34.18690032,11.96,3.145730401
11.97,3.338,11.97,30.49356034,11.97,3.164237529
11.98,3.295,11.98,30.35614169,11.98,3.166863981
11.99,3.277,11.99,29.67605137,11.99,3.15598393
12,3.272,12,29.64411623,12,3.14053843
12.01,3.288,12.01,30.22641844,12.01,3.123897907
12.02,3.289,12.02,28.47671555,12.02,2.96930157
12.03,3.278,12.03,26.14354974,12.03,2.723000793
12.04,3.263,12.04,29.09707108,12.04,2.800811503
12.05,3.247,12.05,28.10876135,12.05,4.025695102
12.06,3.095,12.06,30.21265618,12.06,4.308063495
12.07,2.853,12.07,24.13492325,12.07,3.243695591
12.08,2.927,12.08,14.33615219,12.08,2.571700451
12.09,4.122,12.09,10.30351763,12.09,2.687221578
12.1,4.389,12.1,10.86474125,12.1,2.968137742
12.11,3.357,12.11,13.29757331,12.11,3.099209317
12.12,2.725,12.12,15.4004857,12.12,3.145631856
12.13,2.861,12.13,21.39744711,12.13,3.166026854
12.14,3.118,12.14,41.85317751,12.14,3.163065554
12.15,3.21,12.15,55.51246429,12.15,3.186023418
12.16,3.244,12.16,65.72445016,12.16,3.183579663
12.17,3.273,12.17,56.31701412,12.17,3.190416653
12.18,3.279,12.18,36.90656451,12.18,3.171534718
12.19,3.305,12.19,32.72186629,12.19,3.141087069
12.2,3.304,12.2,36.47689549,12.2,3.122845326
12.21,3.312,12.21,40.57128159,12.21,3.115154243
12.22,3.294,12.22,42.76953401,12.22,3.125544487
12.23,3.265,12.23,38.29911969,12.23,3.121691213
12.24,3.247,12.24,34.31387578,12.24,3.145607029
12.25,3.239,12.25,28.93400711,12.25,3.191701826
12.26,3.248,12.26,23.46488726,12.26,3.252449187
12.27,3.243,12.27,17.7993725,12.27,3.311827917
12.28,3.266,12.28,12.82631433,12.28,3.363725605
12.29,3.311,12.29,8.079511458,12.29,3.360750925
12.3,3.371,12.3,5.075715883,12.3,3.32062347
12.31,3.43,12.31,4.936749139,12.31,3.223252314
12.32,3.483,12.32,4.079414504,12.32,3.149706343
12.33,3.483,12.33,2.394813762,12.33,3.113819898
12.34,3.447,12.34,2.606500352,12.34,3.089770655
12.35,3.354,12.35,4.010782006,12.35,3.084812304
12.36,3.283,12.36,4.295899085,12.36,3.095929495
12.37,3.246,12.37,6.420550503,12.37,3.124051036
12.38,3.219,12.38,6.466638274,12.38,3.147317877
12.39,3.21,12.39,5.273419899,12.39,3.142000638
12.4,3.218,12.4,6.252423724,12.4,3.14916509
12.41,3.244,12.41,7.723755736,12.41,3.158389065
12.42,3.266,12.42,7.595607386,12.42,3.178139355
12.43,3.261,12.43,6.716949133,12.43,3.162763922
12.44,3.269,12.44,8.668761487,12.44,3.154891884
12.45,3.279,12.45,9.306271721,12.45,3.162671415
12.46,3.299,12.46,14.20784997,12.46,3.159420755
12.47,3.284,12.47,18.40897128,12.47,3.167969192
12.48,3.277,12.48,19.82839584,12.48,3.186457206
12.49,3.285,12.49,16.6089562,12.49,3.179069761
12.5,3.282,12.5,19.13409411,12.5,3.17770632
12.51,3.29,12.51,19.61408292,12.51,3.171193787
12.52,3.308,12.52,21.25582643,12.52,3.174875417
12.53,3.301,12.53,19.37785486,12.53,3.166019064
12.54,3.3,12.54,18.57589398,12.54,3.158917204
12.55,3.294,12.55,20.23406183,12.55,3.165260542
12.56,3.298,12.56,21.12239228,12.56,3.166435422
12.57,3.289,12.57,19.5947669,12.57,3.160588822
12.58,3.282,12.58,15.43552608,12.58,3.153523474
12.59,3.288,12.59,13.89368986,12.59,3.134048523
12.6,3.289,12.6,18.45066062,12.6,3.106650263
12.61,3.283,12.61,28.04938576,12.61,3.122439947
12.62,3.276,12.62,29.50500805,12.62,3.194749525
12.63,3.257,12.63,23.41715124,12.63,3.237453022
12.64,3.23,12.64,11.88160538,12.64,3.260430132
12.65,3.245,12.65,3.295655196,12.65,3.261395876
12.66,3.315,12.66,3.749262131,12.66,3.199326257
12.67,3.356,12.67,6.339464456,12.67,3.17212835
12.68,3.379,12.68,9.133606584,12.68,3.150877027
12.69,3.382,12.69,9.23375527,12.69,3.151012781
12.7,3.324,12.7,5.959692931,12.7,3.146217979
12.71,3.299,12.71,5.056259968,12.71,3.141124957
12.72,3.278,12.72,3.892279275,12.72,3.145898531
12.73,3.277,12.73,3.896638823,12.73,3.127794309
12.74,3.27,12.74,-1.531240986,12.74,2.949595203
12.75,3.264,12.75,-5.341976768,12.75,2.678362409
12.76,3.268,12.76,-11.07730889,12.76,2.792662024
12.77,3.25,12.77,-14.71837589,12.77,4.147888692
12.78,3.075,12.78,-13.52952773,12.78,4.243516151
12.79,2.809,12.79,-3.177409362,12.79,3.148199267
12.8,2.919,12.8,-2.87167421,12.8,2.573890027
12.81,4.241,12.81,-6.209040238,12.81,2.745498693
12.82,4.324,12.82,5.660901616,12.82,3.039813421
12.83,3.264,12.83,15.22595417,12.83,3.133655441
12.84,2.728,12.84,18.6228797,12.84,3.164063689
12.85,2.919,12.85,18.15260314,12.85,3.156796411
12.86,3.185,12.86,17.05980912,12.86,3.155264157
12.87,3.242,12.87,13.11918719,12.87,3.16858853
12.88,3.264,12.88,13.3851512,12.88,3.178051111
12.89,3.267,12.89,13.51291116,12.89,3.174591966
12.9,3.274,12.9,13.89880137,12.9,3.147494929
12.91,3.289,12.91,10.24623748,12.91,3.137720057
12.92,3.299,12.92,-2.723164938,12.92,3.133794407
12.93,3.296,12.93,-6.156877863,12.93,3.115047765
12.94,3.27,12.94,-2.486263012,12.94,3.114905616
12.95,3.261,12.95,-4.506840115,12.95,3.124689899
12.96,3.257,12.96,-6.881577191,12.96,3.141447563
12.97,3.238,12.97,-10.50391106,12.97,3.18063059
12.98,3.237,12.98,-9.857502623,12.98,3.229298672
12.99,3.246,12.99,-10.84619618,12.99,3.323127129
13,3.262,13,-10.99797688,13,3.39803876
13.01,3.3,13.01,-11.02788414,13.01,3.402107961
13.02,3.348,13.02,-10.12902792,13.02,3.340054219
13.03,3.441,13.03,-9.118919944,13.03,3.234084718
13.04,3.516,13.04,-8.982642757,13.04,3.154009825
13.05,3.523,13.05,-7.31160361,13.05,3.091846948
13.06,3.466,13.06,-6.583167399,13.06,3.069534918
13.07,3.366,13.07,-8.085431691,13.07,3.094837714
13.08,3.289,13.08,-5.833603799,13.08,3.103535967
13.09,3.226,13.09,-8.210609039,13.09,3.117633722
13.1,3.2,13.1,-7.466136717,13.1,3.129216343
13.11,3.22,13.11,-4.736076559,13.11,3.141671492
13.12,3.225,13.12,-3.995864412,13.12,3.149362078
13.13,3.237,13.13,-4.748890603,13.13,3.151730439
13.14,3.248,13.14,-3.46388288,13.14,3.168430312
13.15,3.261,13.15,-2.899224277,13.15,3.168961816
13.16,3.269,13.16,1.357101168,13.16,3.174541875
13.17,3.272,13.17,1.865249036,13.17,3.183367664
13.18,3.289,13.18,7.194981597,13.18,3.170575904
13.19,3.29,13.19,8.467409084,13.19,3.169259524
13.2,3.296,13.2,8.262712906,13.2,3.163022016
13.21,3.305,13.21,5.265421816,13.21,3.153782632
13.22,3.293,13.22,7.551998793,13.22,3.166434533
13.23,3.292,13.23,16.7054093,13.23,3.187117313
13.24,3.286,13.24,12.76236772,13.24,3.188311855
13.25,3.277,13.25,3.932799575,13.25,3.168697768
13.26,3.289,13.26,4.95207477,13.26,3.173077578
13.27,3.309,13.27,12.84615106,13.27,3.174854634
13.28,3.31,13.28,10.1454961,13.28,3.158741087
13.29,3.291,13.29,10.04719708,13.29,3.163195221
13.3,3.296,13.3,10.00905293,13.3,3.14290192
13.31,3.298,13.31,12.15649486,13.31,3.14195677
13.32,3.282,13.32,13.52577995,13.32,3.152847208
13.33,3.286,13.33,14.6938894,13.33,3.105184589
13.34,3.266,13.34,12.68182508,13.34,3.102411926
13.35,3.265,13.35,7.444269096,13.35,3.170289084
13.36,3.275,13.36,1.849093665,13.36,3.242324806
13.37,3.228,13.37,-2.447287495,13.37,3.280556525
13.38,3.225,13.38,-3.083662679,13.38,3.260265479
13.39,3.291,13.39,-1.464457561,13.39,3.194518155
13.4,3.361,13.4,-1.180099915,13.4,3.172729081
13.41,3.398,13.41,-1.881259908,13.41,3.168805466
13.42,3.38,13.42,-0.2613453,13.42,3.162393666
13.43,3.319,13.43,0.111229188,13.43,3.146089515
13.44,3.3,13.44,-3.366382904,13.44,3.141662346
13.45,3.296,13.45,-2.24555757,13.45,3.149303534
13.46,3.288,13.46,-6.012982343,13.46,3.140732807
13.47,3.27,13.47,-10.14408199,13.47,3.155448571
13.48,3.265,13.48,-13.3515573,13.48,3.054751412
13.49,3.272,13.49,-13.95902376,13.49,2.818742052
13.5,3.263,13.5,-10.35733967,13.5,2.555691324
13.51,3.277,13.51,-5.31900515,13.51,3.419011377
13.52,3.178,13.52,-5.03674844,13.52,4.376711259
13.53,2.947,13.53,-9.91804283,13.53,3.814906242
13.54,2.688,13.54,-9.225686826,13.54,2.729737914
13.55,3.531,13.55,2.829713096,13.55,2.57208628
13.56,4.458,13.56,7.207653904,13.56,2.875602531
13.57,3.907,13.57,-0.261050123,13.57,3.088426443
13.58,2.864,13.58,-9.214481455,13.58,3.135683982
13.59,2.741,13.59,-13.3996268,13.59,3.15622514
13.6,3.04,13.6,-8.922515031,13.6,3.161194743
13.61,3.215,13.61,-2.954129363,13.61,3.165847544
13.62,3.235,13.62,-1.18854676,13.62,3.161632143
13.63,3.259,13.63,-2.223185954,13.63,3.169718946
13.64,3.275,13.64,-6.199808691,13.64,3.184477395
13.65,3.285,13.65,-7.550880146,13.65,3.164778394
13.66,3.282,13.66,-8.89765738,13.66,3.128757221
13.67,3.291,13.67,-9.635426274,13.67,3.122356943
13.68,3.306,13.68,-11.86526733,13.68,3.091170429
13.69,3.287,13.69,-14.4712759,13.69,3.09123549
13.7,3.252,13.7,-16.63430187,13.7,3.143757993
13.71,3.246,13.71,-17.07929999,13.71,3.166989698
13.72,3.215,13.72,-15.90956905,13.72,3.195686255
13.73,3.214,13.73,-16.1692591,13.73,3.260920418
13.74,3.264,13.74,-15.73761096,13.74,3.36594535
13.75,3.286,13.75,-15.04509305,13.75,3.40595519
13.76,3.314,13.76,-12.14073376,13.76,3.366944416
13.77,3.379,13.77,-13.50963858,13.77,3.299549375
13.78,3.484,13.78,-11.40584014,13.78,3.210730572
13.79,3.525,13.79,-9.304845782,13.79,3.13952017
13.8,3.49,13.8,-10.56207749,13.8,3.085512565
13.81,3.428,13.81,-10.96241497,13.81,3.0680968
13.82,3.344,13.82,-11.18051776,13.82,3.088669548
13.83,3.274,13.83,-10.11100943,13.83,3.10512711
13.84,3.218,13.84,-9.256679296,13.84,3.140441646
13.85,3.197,13.85,-8.662754214,13.85,3.144744765
13.86,3.213,13.86,-7.325872773,13.86,3.15479788
13.87,3.226,13.87,-1.473329338,13.87,3.167138486
13.88,3.259,13.88,0.614995459,13.88,3.149707731
13.89,3.263,13.89,4.85959573,13.89,3.148155207
13.9,3.274,13.9,6.674410077,13.9,3.158087083
13.91,3.287,13.91,6.087882645,13.91,3.154958878
13.92,3.271,13.92,11.27584254,13.92,3.169525951
13.93,3.27,13.93,6.569868978,13.93,3.17560043
13.94,3.28,13.94,0.031016757,13.94,3.185356551
13.95,3.277,13.95,0.395395699,13.95,3.162731572
13.96,3.291,13.96,1.836323877,13.96,3.1650848
13.97,3.297,13.97,1.013127523,13.97,3.18957909
13.98,3.307,13.98,-0.381964854,13.98,3.166218983
13.99,3.285,13.99,-0.78423804,13.99,3.156151806
14,3.288,14,7.653970072,14,3.169278856
14.01,3.312,14.01,9.468942199,14.01,3.181391614
14.02,3.289,14.02,9.469658551,14.02,3.172846154
14.03,3.279,14.03,11.55129761,14.03,3.168631664
14.04,3.292,14.04,8.039446183,14.04,3.186558695
14.05,3.304,14.05,0.394211029,14.05,3.178322721
14.06,3.295,14.06,-8.364293832,14.06,3.147752095
14.07,3.291,14.07,-10.33809854,14.07,3.158837228
14.08,3.309,14.08,-7.519486006,14.08,3.168135742
14.09,3.301,14.09,-7.127693582,14.09,3.152370528
14.1,3.271,14.1,-6.089884615,14.1,3.088636464
14.11,3.282,14.11,-9.333735771,14.11,3.072974148
14.12,3.291,14.12,-8.945320889,14.12,3.141195244
14.13,3.275,14.13,-8.036506755,14.13,3.227647441
14.14,3.212,14.14,-10.23011641,14.14,3.280820304
14.15,3.197,14.15,-11.12346178,14.15,3.27598869
14.16,3.263,14.16,-10.23267024,14.16,3.226168844
14.17,3.346,14.17,-16.72401288,14.17,3.177105142
14.18,3.397,14.18,-21.54613115,14.18,3.15388369
14.19,3.394,14.19,-17.00746963,14.19,3.156335609
14.2,3.349,14.2,-10.06116721,14.2,3.166799558
14.21,3.304,14.21,-9.793900549,14.21,3.147002977
14.22,3.282,14.22,-11.59052787,14.22,3.145379039
14.23,3.283,14.23,-9.600204854,14.23,3.141474575
14.24,3.291,14.24,3.519245492,14.24,3.16606121
14.25,3.27,14.25,12.65377421,14.25,3.076094056
14.26,3.268,14.26,13.60827499,14.26,2.84216761
14.27,3.264,14.27,-0.686352258,14.27,2.595997012
14.28,3.288,14.28,-12.84944304,14.28,3.188787458
14.29,3.199,14.29,-9.463065433,14.29,4.374501924
14.3,2.97,14.3,-6.075355725,14.3,4.020023046
14.31,2.728,14.31,-2.87425667,14.31,2.833595064
14.32,3.306,14.32,-0.457668484,14.32,2.506210858
14.33,4.458,14.33,-2.072503574,14.33,2.79736073
14.34,4.106,14.34,-6.88373276,14.34,3.06587754
14.35,2.963,14.35,-8.075401966,14.35,3.15239222
14.36,2.673,14.36,-8.606706205,14.36,3.153433756
14.37,2.968,14.37,-9.587390921,14.37,3.168269721
14.38,3.199,14.38,-11.97532243,14.38,3.184485865
14.39,3.252,14.39,-12.61730588,14.39,3.176511246
14.4,3.253,14.4,-14.40645581,14.4,3.17670235
14.41,3.28,14.41,-12.59297446,14.41,3.1491846
14.42,3.303,14.42,-12.29899374,14.42,3.127140888
14.43,3.297,14.43,-11.19868803,14.43,3.141913797
14.44,3.298,14.44,-11.22195916,14.44,3.136545727
14.45,3.272,14.45,-10.27160896,14.45,3.122073529
14.46,3.251,14.46,-8.255072876,14.46,3.116379378
14.47,3.265,14.47,-8.445766588,14.47,3.129551511
14.48,3.259,14.48,-5.925462122,14.48,3.157604954
14.49,3.244,14.49,-7.234223665,14.49,3.198760502
14.5,3.238,14.5,-7.171796135,14.5,3.24937693
14.51,3.251,14.51,-4.07767304,14.51,3.320471898
14.52,3.278,14.52,-3.194769462,14.52,3.394951249
14.53,3.318,14.53,-1.128014442,14.53,3.376855804
14.54,3.368,14.54,-0.771868825,14.54,3.316046415
14.55,3.439,14.55,0.207963455,14.55,3.229388951
14.56,3.514,14.56,-0.073499278,14.56,3.151730416
14.57,3.499,14.57,1.67149086,14.57,3.105178539
14.58,3.443,14.58,3.228409173,14.58,3.075433668
14.59,3.361,14.59,5.638569564,14.59,3.080579298
14.6,3.286,14.6,6.795736587,14.6,3.112488211
14.61,3.238,14.61,5.817722705,14.61,3.134793923
14.62,3.205,14.62,8.654615291,14.62,3.131239252
14.63,3.206,14.63,13.73481859,14.63,3.144718373
14.64,3.234,14.64,14.0025102,14.64,3.156976551
14.65,3.254,14.65,10.50214673,14.65,3.15833396
14.66,3.25,14.66,8.144815174,14.66,3.159047661
14.67,3.264,14.67,8.176056582,14.67,3.162501858
14.68,3.277,14.68,6.840644897,14.68,3.16108326
14.69,3.279,14.69,4.791612636,14.69,3.156868738
14.7,3.28,14.7,4.388899698,14.7,3.15780221
14.71,3.284,14.71,3.107048861,14.71,3.173061027
14.72,3.283,14.72,7.08218272,14.72,3.179293493
14.73,3.279,14.73,9.710667777,14.73,3.167958143
14.74,3.28,14.74,11.97904463,14.74,3.177763704
14.75,3.295,14.75,10.89602924,14.75,3.182548524
14.76,3.301,14.76,5.618215685,14.76,3.175273622
14.77,3.29,14.77,0.06734524,14.77,3.176346234
14.78,3.3,14.78,-1.907467967,14.78,3.166928159
14.79,3.305,14.79,-0.312256277,14.79,3.173991315
14.8,3.298,14.8,-0.431462837,14.8,3.174333068
14.81,3.299,14.81,-0.603364937,14.81,3.175354339
14.82,3.29,14.82,-0.909762035,14.82,3.174480508
14.83,3.297,14.83,-4.929290269,14.83,3.161015436
14.84,3.297,14.84,-6.482279921,14.84,3.157921182
14.85,3.298,14.85,-3.89153045,14.85,3.160143808
14.86,3.297,14.86,-5.548438625,14.86,3.156350178
14.87,3.284,14.87,-6.300046816,14.87,3.161814219
14.88,3.281,14.88,-13.36562824,14.88,3.151751227
14.89,3.283,14.89,-18.08766894,14.89,3.114956461
14.9,3.279,14.9,-15.11166479,14.9,3.092622481
14.91,3.284,14.91,-9.573552775,14.91,3.121683921
14.92,3.274,14.92,-2.319051517,14.92,3.208570141
14.93,3.238,14.93,-5.678791378,14.93,3.252525016
14.94,3.216,14.94,-1.479725231,14.94,3.273922525
14.95,3.244,14.95,10.81538088,14.95,3.247786456
14.96,3.328,14.96,19.29941017,14.96,3.181175119
14.97,3.37,14.97,25.10490627,14.97,3.18086473
14.98,3.392,14.98,18.81426402,14.98,3.16425996
14.99,3.369,14.99,13.81120799,14.99,3.142362563
15,3.307,15,8.880746532,15,3.143265163
15.01,3.308,15.01,11.39735717,15.01,3.148958259
15.02,3.291,15.02,14.71285724,15.02,3.169188504
15.03,3.268,15.03,12.63277338,15.03,3.142301422
15.04,3.267,15.04,6.710009294,15.04,3.096008261
15.05,3.272,15.05,1.133962857,15.05,2.916477147
15.06,3.291,15.06,0.618684182,15.06,2.638315967
15.07,3.264,15.07,0.021041606,15.07,3.025029231
15.08,3.219,15.08,-0.204957866,15.08,4.324805502
15.09,3.043,15.09,-3.488884169,15.09,4.207266986
15.1,2.77,15.1,-7.370502987,15.1,2.979875844
15.11,3.146,15.11,-9.151683397,15.11,2.451820233
15.12,4.412,15.12,-9.580284473,15.12,2.710837707
15.13,4.29,15.13,-9.689478404,15.13,3.022493443
15.14,3.104,15.14,-9.230827444,15.14,3.148457772
15.15,2.617,15.15,-8.32548447,15.15,3.154785879
15.16,2.887,15.16,-7.679207085,15.16,3.160929614
15.17,3.163,15.17,-6.212645977,15.17,3.185527411
15.18,3.25,15.18,-5.219715663,15.18,3.166563123
15.19,3.251,15.19,-4.018602136,15.19,3.166693184
15.2,3.27,15.2,-3.422201943,15.2,3.187307304
15.21,3.303,15.21,-3.472601398,15.21,3.178522668
15.22,3.287,15.22,-2.28927005,15.22,3.131714082
15.23,3.288,15.23,-1.954617981,15.23,3.118104758
15.24,3.309,15.24,-1.761909839,15.24,3.119349724
15.25,3.301,15.25,-1.457170545,15.25,3.110305342
15.26,3.255,15.26,-1.922365789,15.26,3.108692928
15.27,3.242,15.27,-1.138347413,15.27,3.141807234
15.28,3.243,15.28,0.341282746,15.28,3.206287348
15.29,3.233,15.29,3.496451995,15.29,3.263366663
15.3,3.23,15.3,6.346479114,15.3,3.335504927
15.31,3.262,15.31,9.79339058,15.31,3.373719227
15.32,3.325,15.32,8.171540346,15.32,3.384331922
15.33,3.381,15.33,5.822753375,15.33,3.296451638
15.34,3.453,15.34,8.657819908,15.34,3.226087276
15.35,3.493,15.35,10.81619312,15.35,3.1677734
15.36,3.507,15.36,11.54104517,15.36,3.120629658
15.37,3.424,15.37,9.48305336,15.37,3.094164808
15.38,3.358,15.38,7.240862777,15.38,3.070050808
15.39,3.301,15.39,7.856922004,15.39,3.102349455
15.4,3.253,15.4,7.387513242,15.4,3.126071792
15.41,3.223,15.41,3.481408114,15.41,3.124895255
15.42,3.196,15.42,3.593771921,15.42,3.154421132
15.43,3.225,15.43,5.117736622,15.43,3.147280031
15.44,3.246,15.44,7.787634849,15.44,3.167654837
15.45,3.244,15.45,10.03429031,15.45,3.161296704
15.46,3.273,15.46,9.316610277,15.46,3.145961215
15.47,3.267,15.47,5.895423542,15.47,3.162165447
15.48,3.288,15.48,1.328338015,15.48,3.164995069
15.49,3.282,15.49,-3.731103902,15.49,3.176349517
15.5,3.268,15.5,-3.549887838,15.5,3.178513971
15.51,3.284,15.51,-3.719795828,15.51,3.167659083
15.52,3.287,15.52,-1.923314966,15.52,3.173459764
15.53,3.298,15.53,-2.130982702,15.53,3.165141109
15.54,3.3,15.54,-7.386840366,15.54,3.172258954
15.55,3.29,15.55,-3.511957477,15.55,3.168513791
15.56,3.296,15.56,-6.130002102,15.56,3.165291225
15.57,3.288,15.57,-5.84727445,15.57,3.195019737
15.58,3.295,15.58,-7.792242799,15.58,3.190938014
15.59,3.291,15.59,-9.182678536,15.59,3.165146254
15.6,3.288,15.6,-15.15776345,15.6,3.17190585
15.61,3.317,15.61,-15.32591862,15.61,3.166474292
15.62,3.313,15.62,-8.740652688,15.62,3.181121438
15.63,3.288,15.63,-3.771918211,15.63,3.165521269
15.64,3.295,15.64,-7.501236464,15.64,3.136597782
15.65,3.29,15.65,-11.05869758,15.65,3.158097785
15.66,3.304,15.66,3.196046486,15.66,3.087106037
15.67,3.288,15.67,10.53258281,15.67,3.103770657
15.68,3.26,15.68,8.539265691,15.68,3.158377563
15.69,3.281,15.69,2.948469155,15.69,3.216874561
15.7,3.211,15.7,-1.703604338,15.7,3.252579701
15.71,3.227,15.71,-7.130535794,15.71,3.266827512
15.72,3.279,15.72,-5.252013711,15.72,3.232395887
15.73,3.336,15.73,-1.951461639,15.73,3.165717253
15.74,3.37,15.74,-2.750841383,15.74,3.141384606
15.75,3.386,15.75,-5.583319328,15.75,3.153560559
15.76,3.355,15.76,-7.763870299,15.76,3.154783799
15.77,3.292,15.77,-7.042848988,15.77,3.144496933
15.78,3.269,15.78,-8.455513854,15.78,3.142912263
15.79,3.28,15.79,-9.482496002,15.79,3.152996498
15.8,3.279,15.8,-13.20176483,15.8,3.161425439
15.81,3.267,15.81,-14.65216402,15.81,3.057690185
15.82,3.265,15.82,-15.58692366,15.82,2.854339642
15.83,3.275,15.83,-16.09084929,15.83,2.639913924
15.84,3.283,15.84,-14.54918432,15.84,3.419497975
15.85,3.181,15.85,-13.07663463,15.85,4.374776521
15.86,2.982,15.86,-11.29468502,15.86,3.81261777
15.87,2.771,15.87,-12.49823354,15.87,2.722304242
15.88,3.532,15.88,-10.78623418,15.88,2.540446429
15.89,4.458,15.89,-11.37549348,15.89,2.841957735
15.9,3.907,15.9,-14.1616448,15.9,3.059340858
15.91,2.859,15.91,-12.75255751,15.91,3.125533401
15.92,2.71,15.92,-10.77172479,15.92,3.165167718
15.93,3.007,15.93,-11.05528821,15.93,3.199457119
15.94,3.186,15.94,-11.07056211,15.94,3.179052554
15.95,3.224,15.95,-10.09965826,15.95,3.163335687
15.96,3.266,15.96,-7.916696752,15.96,3.156547114
15.97,3.311,15.97,-6.348112852,15.97,3.186275938
15.98,3.297,15.98,-5.185706611,15.98,3.178879101
15.99,3.284,15.99,-2.261192843,15.99,3.136015415
16,3.279,16,1.174844416,16,3.127541317
16.01,3.309,16.01,0.716244577,16.01,3.114215583
16.02,3.301,16.02,3.862671525,16.02,3.11824136
16.03,3.259,16.03,4.466138362,16.03,3.131985607
16.04,3.251,16.04,6.582038302,16.04,3.155842027
16.05,3.238,16.05,11.90270852,16.05,3.203940847
16.06,3.241,16.06,10.33711368,16.06,3.274789535
16.07,3.253,16.07,5.273196313,16.07,3.371402875
16.08,3.276,16.08,-2.724712774,16.08,3.383463798
16.09,3.323,16.09,-2.840583284,16.09,3.333716662
16.1,3.393,16.1,-1.632766779,16.1,3.271815856
16.11,3.489,16.11,-0.814189778,16.11,3.199130575
16.12,3.503,16.12,-1.395640658,16.12,3.14306466
16.13,3.458,16.13,-0.186309384,16.13,3.08090755
16.14,3.401,16.14,11.83351715,16.14,3.07612567
16.15,3.332,16.15,20.90845978,16.15,3.095203998
16.16,3.276,16.16,20.21341045,16.16,3.110167666
16.17,3.212,16.17,15.88530596,16.17,3.147554866
16.18,3.204,16.18,4.509017642,16.18,3.161724166
16.19,3.219,16.19,-2.970067039,16.19,3.148373916
16.2,3.231,16.2,-2.315478925,16.2,3.152334735
16.21,3.266,16.21,-0.408751942,16.21,3.150321412
16.22,3.28,16.22,1.864717848,16.22,3.164305211
16.23,3.268,16.23,3.331752027,16.23,3.156463814
16.24,3.273,16.24,-0.750464387,16.24,3.156096391
16.25,3.272,16.25,0.387746633,16.25,3.182533621
16.26,3.286,16.26,-1.471786266,16.26,3.176224153
16.27,3.278,16.27,-1.025406144,16.27,3.179079133
16.28,3.278,16.28,-0.782487703,16.28,3.173680459
16.29,3.304,16.29,-4.426514955,16.29,3.168908226
16.3,3.298,16.3,-9.04877548,16.3,3.170116129
16.31,3.301,16.31,-12.0540993,16.31,3.151828884
16.32,3.296,16.32,-10.30377132,16.32,3.159099678
16.33,3.292,16.33,-5.042390282,16.33,3.19109717
16.34,3.293,16.34,-6.09702649,16.34,3.192345938
16.35,3.275,16.35,0.59749644,16.35,3.181042443
16.36,3.282,16.36,15.58764796,16.36,3.164008195
16.37,3.313,16.37,35.15745555,16.37,3.160195976
16.38,3.314,16.38,46.27038672,16.38,3.154467476
16.39,3.303,16.39,40.90118243,16.39,3.147919965
16.4,3.287,16.4,29.65524621,16.4,3.12402632
16.41,3.284,16.41,19.50292725,16.41,3.094687312
16.42,3.278,16.42,21.0061957,16.42,3.118704445
16.43,3.271,16.43,23.11387405,16.43,3.193184552
16.44,3.247,16.44,22.85451313,16.44,3.235938627
16.45,3.218,16.45,17.49935399,16.45,3.269008309
16.46,3.241,16.46,13.16335581,16.46,3.255477259
16.47,3.313,16.47,10.28675911,16.47,3.213540391
16.48,3.354,16.48,7.703320286,16.48,3.15792357
16.49,3.387,16.49,3.281951682,16.49,3.143351751
16.5,3.376,16.5,-0.393042773,16.5,3.157279053
16.51,3.338,16.51,-4.379448396,16.51,3.132921094
16.52,3.285,16.52,-7.136842853,16.52,3.163918788
16.53,3.271,16.53,-8.533856038,16.53,3.170730415
16.54,3.283,16.54,-8.741270878,16.54,3.161186282
16.55,3.257,16.55,-9.083609021,16.55,3.144013821
16.56,3.286,16.56,-9.105033665,16.56,2.981136933
16.57,3.292,16.57,-8.714127321,16.57,2.739359601
16.58,3.283,16.58,-7.097786011,16.58,2.731522578
16.59,3.266,16.59,-5.461626556,16.59,3.915456756
16.6,3.107,16.6,-3.444371957,16.6,4.369374815
16.61,2.87,16.61,-2.856860816,16.61,3.3388744
16.62,2.86,16.62,-2.818627974,16.62,2.586784162
16.63,4.015,16.63,-1.445949929,16.63,2.659338983
16.64,4.449,16.64,-0.801227812,16.64,2.944387455
16.65,3.448,16.65,-1.203972319,16.65,3.100938992
16.66,2.737,16.66,0.756509951,16.66,3.144020512
16.67,2.833,16.67,2.257579131,16.67,3.182342397
16.68,3.098,16.68,2.964977828,16.68,3.195234178
16.69,3.214,16.69,6.725659551,16.69,3.185793516
16.7,3.242,16.7,8.29980569,16.7,3.184951807
16.71,3.288,16.71,9.459291525,16.71,3.168114544
16.72,3.31,16.72,8.493381456,16.72,3.153249155
16.73,3.305,16.73,7.746993898,16.73,3.148474022
16.74,3.306,16.74,9.668449998,16.74,3.129520027
16.75,3.291,16.75,14.15059007,16.75,3.131202449
16.76,3.277,16.76,15.05149381,16.76,3.104453572
16.77,3.272,16.77,17.59676823,16.77,3.110913562
16.78,3.253,16.78,19.34453171,16.78,3.144488944
16.79,3.254,16.79,18.29102372,16.79,3.196860779
16.8,3.227,16.8,16.86615039,16.8,3.256280143
16.81,3.233,16.81,12.24914882,16.81,3.294725029
16.82,3.265,16.82,9.359880288,16.82,3.36969624
16.83,3.316,16.83,11.22345981,16.83,3.376138374
16.84,3.374,16.84,16.0043445,16.84,3.305462904
16.85,3.413,16.85,22.10745854,16.85,3.221317142
16.86,3.489,16.86,20.44957377,16.86,3.167882605
16.87,3.498,16.87,13.52152546,16.87,3.125947694
16.88,3.432,16.88,0.899675866,16.88,3.084875062
16.89,3.352,16.89,-3.220026799,16.89,3.075210938
16.9,3.301,16.9,-1.742277065,16.9,3.109562421
16.91,3.258,16.91,-0.483949792,16.91,3.140283085
16.92,3.214,16.92,0.861245462,16.92,3.14538382
16.93,3.201,16.93,-0.431198217,16.93,3.131583537
16.94,3.232,16.94,-0.73595992,16.94,3.13119965
16.95,3.26,16.95,-0.953144761,16.95,3.156043894
16.96,3.264,16.96,-0.574875734,16.96,3.165362768
16.97,3.251,16.97,0.235773783,16.97,3.167380698
16.98,3.252,16.98,-0.560368104,16.98,3.172942549
16.99,3.277,16.99,-3.390223265,16.99,3.168011195
17,3.286,17,-9.124336722,17,3.174757449
17.01,3.288,17.01,-7.224806018,17.01,3.164497877
17.02,3.294,17.02,-4.771213608,17.02,3.171388927
17.03,3.29,17.03,-2.100032036,17.03,3.167491867
17.04,3.297,17.04,2.662785774,17.04,3.164272503
17.05,3.287,17.05,16.26213203,17.05,3.167555568
17.06,3.294,17.06,31.47825041,17.06,3.186844234
17.07,3.29,17.07,44.59025436,17.07,3.182931919
17.08,3.287,17.08,47.12977619,17.08,3.170426964
17.09,3.29,17.09,35.47017685,17.09,3.162941191
17.1,3.309,17.1,21.46988286,17.1,3.163660786
17.11,3.305,17.11,17.42417259,17.11,3.172227123
17.12,3.293,17.12,18.82294162,17.12,3.177775061
17.13,3.286,17.13,19.22056751,17.13,3.164592567
17.14,3.287,17.14,16.5872937,17.14,3.153112399
17.15,3.295,17.15,12.24806283,17.15,3.156042479
17.16,3.3,17.16,7.444557105,17.16,3.085956436
17.17,3.287,17.17,4.482331017,17.17,3.096442959
17.18,3.276,17.18,2.74256446,17.18,3.152860832
17.19,3.279,17.19,-0.777340531,17.19,3.229273757
17.2,3.21,17.2,-3.045889391,17.2,3.268118606
17.21,3.22,17.21,-7.048317059,17.21,3.26287719
17.22,3.274,17.22,-9.383933274,17.22,3.2157925
17.23,3.348,17.23,-10.88967366,17.23,3.177397228
17.24,3.385,17.24,-11.29379242,17.24,3.149467575
17.25,3.382,17.25,-10.97085481,17.25,3.169044482
17.26,3.339,17.26,-10.70783434,17.26,3.164133986
17.27,3.304,17.27,-11.92722432,17.27,3.130574799
17.28,3.277,17.28,-10.14868528,17.28,3.135141281
17.29,3.295,17.29,-8.814738664,17.29,3.153641113
17.3,3.288,17.3,-8.577747415,17.3,3.159450887
17.31,3.254,17.31,-8.251303308,17.31,3.04387156
17.32,3.258,17.32,-8.074614961,17.32,2.831068453
17.33,3.276,17.33,-8.583099357,17.33,2.597263121
17.34,3.281,17.34,-7.587687302,17.34,3.517867744
17.35,3.167,17.35,-7.280101934,17.35,4.376458641
17.36,2.959,17.36,-7.558219833,17.36,3.656452288
17.37,2.729,17.37,-6.939587895,17.37,2.704224448
17.38,3.628,17.38,-6.784011591,17.38,2.642053047
17.39,4.458,17.39,-0.761460335,17.39,2.9142031
17.4,3.754,17.4,2.182088036,17.4,3.09715648
17.41,2.842,17.41,2.92928431,17.41,3.156091307
17.42,2.81,17.42,2.297475637,17.42,3.161884101
17.43,3.075,17.43,-0.834720852,17.43,3.156771483
17.44,3.22,17.44,1.800259472,17.44,3.16014942
17.45,3.256,17.45,5.590731834,17.45,3.18643536
17.46,3.267,17.46,3.031622525,17.46,3.176826058
17.47,3.272,17.47,-0.734202467,17.47,3.147570698
17.48,3.28,17.48,-3.746404069,17.48,3.13781559
17.49,3.307,17.49,-4.162361645,17.49,3.143732302
17.5,3.298,17.5,-4.364003203,17.5,3.143559915
17.51,3.27,17.51,-5.531858071,17.51,3.110749652
17.52,3.261,17.52,-7.508054876,17.52,3.107772943
17.53,3.267,17.53,-6.506679741,17.53,3.1305566
17.54,3.266,17.54,-4.845096061,17.54,3.156690216
17.55,3.233,17.55,-4.895357056,17.55,3.207328587
17.56,3.23,17.56,-5.601177624,17.56,3.282240482
17.57,3.252,17.57,-11.08493996,17.57,3.357117694
17.58,3.277,17.58,-17.94460004,17.58,3.39852862
17.59,3.326,17.59,-20.19878905,17.59,3.36640358
17.6,3.4,17.6,-18.94363527,17.6,3.289019725
17.61,3.475,17.61,-16.72907227,17.61,3.188639038
17.62,3.518,17.62,-18.48998553,17.62,3.126560985
17.63,3.49,17.63,-18.46883692,17.63,3.095152141
17.64,3.418,17.64,-17.80854768,17.64,3.066911062
17.65,3.322,17.65,-18.6673777,17.65,3.098513645
17.66,3.261,17.66,-18.23125916,17.66,3.118658
17.67,3.227,17.67,-17.97068466,17.67,3.117691551
17.68,3.195,17.68,-24.03517432,17.68,3.121969395
17.69,3.222,17.69,-27.71003989,17.69,3.129146229
17.7,3.239,17.7,-26.49769208,17.7,3.168413434
17.71,3.237,17.71,-19.72715218,17.71,3.161255682
17.72,3.241,17.72,-16.08354746,17.72,3.161404042
17.73,3.249,17.73,-18.39023417,17.73,3.165781941
17.74,3.288,17.74,-14.54672761,17.74,3.163779168
17.75,3.281,17.75,-2.939814335,17.75,3.169993475
17.76,3.282,17.76,3.051437157,17.76,3.168900927
17.77,3.287,17.77,6.379366138,17.77,3.182949259
17.78,3.286,17.78,-3.622672245,17.78,3.18803528
17.79,3.292,17.79,-16.28173202,17.79,3.169329342
17.8,3.291,17.8,-16.10922584,17.8,3.167990373
17.81,3.305,17.81,-9.91016403,17.81,3.182071684
17.82,3.31,17.82,-5.62728941,17.82,3.17411326
17.83,3.292,17.83,-5.149418521,17.83,3.160119209
17.84,3.291,17.84,-7.354254665,17.84,3.167150651
17.85,3.305,17.85,-10.57141807,17.85,3.172220497
17.86,3.297,17.86,-11.78796346,17.86,3.166450526
17.87,3.283,17.87,-12.26638789,17.87,3.164598775
17.88,3.29,17.88,-14.5193702,17.88,3.1756261
17.89,3.295,17.89,-14.61900996,17.89,3.162391534
17.9,3.289,17.9,-16.10501092,17.9,3.162380601
17.91,3.287,17.91,-16.3263776,17.91,3.14718071
17.92,3.298,17.92,-16.31281602,17.92,3.173534836
17.93,3.285,17.93,-15.67674442,17.93,3.118147389
17.94,3.285,17.94,-14.95581533,17.94,3.06889104
17.95,3.27,17.95,-14.84536256,17.95,3.132832757
17.96,3.296,17.96,-12.58984218,17.96,3.210340002
17.97,3.241,17.97,-11.84185436,17.97,3.241419732
17.98,3.193,17.98,-11.68767514,17.98,3.281466946
17.99,3.255,17.99,-8.806224098,17.99,3.246621364
18,3.33,18,-9.739646977,18,3.189331768
18.01,3.359,18.01,-8.487564298,18.01,3.163773749
18.02,3.399,18.02,-9.060201075,18.02,3.150655138
18.03,3.368,18.03,-8.574147154,18.03,3.155747886
18.04,3.315,18.04,-7.184661489,18.04,3.15068281
18.05,3.291,18.05,-4.003560063,18.05,3.156586209
18.06,3.278,18.06,-5.540306296,18.06,3.15193105
18.07,3.281,18.07,-1.917963703,18.07,3.157979079
18.08,3.274,18.08,0.831602175,18.08,3.127614102
18.09,3.279,18.09,3.55926993,18.09,2.911284949
18.1,3.274,18.1,3.821801512,18.1,2.672695131
18.11,3.28,18.11,5.977517371,18.11,2.862206754
18.12,3.25,18.12,6.570395506,18.12,4.172179053
18.13,3.038,18.13,7.377639522,18.13,4.219159233
18.14,2.804,18.14,9.090419461,18.14,3.090788588
18.15,2.987,18.15,7.397829376,18.15,2.550447984
18.16,4.264,18.16,6.881602565,18.16,2.758268565
18.17,4.3,18.17,8.266825124,18.17,3.031513899
18.18,3.209,18.18,7.667795011,18.18,3.142438947
18.19,2.707,18.19,5.238438082,18.19,3.146294238
18.2,2.931,18.2,4.444630501,18.2,3.175822053
18.21,3.175,18.21,3.281501895,18.21,3.180234731
18.22,3.249,18.22,4.559023404,18.22,3.174557071
18.23,3.246,18.23,8.571366947,18.23,3.185032081
18.24,3.286,18.24,10.49065303,18.24,3.167495847
18.25,3.298,18.25,8.566045156,18.25,3.152718587
18.26,3.295,18.26,2.713417916,18.26,3.127361718
18.27,3.306,18.27,-2.926252084,18.27,3.115222312
18.28,3.29,18.28,-3.847630333,18.28,3.113190468
18.29,3.276,18.29,-1.989556804,18.29,3.111094572
18.3,3.251,18.3,-0.370064331,18.3,3.137501856
18.31,3.239,18.31,0.850948854,18.31,3.154310444
18.32,3.236,18.32,0.747919501,18.32,3.190786361
18.33,3.233,18.33,-0.348886157,18.33,3.238236089
18.34,3.258,18.34,0.651462161,18.34,3.281700774
18.35,3.274,18.35,2.633963867,18.35,3.367733608
18.36,3.31,18.36,-1.146126217,18.36,3.383889666
18.37,3.357,18.37,-2.030728631,18.37,3.321465945
18.38,3.401,18.38,-6.845122598,18.38,3.258310091
18.39,3.487,18.39,-5.279956991,18.39,3.17686788
18.4,3.505,18.4,-0.751994718,18.4,3.118860336
18.41,3.447,18.41,2.51659707,18.41,3.086793492
18.42,3.388,18.42,0.465477194,18.42,3.070089535
18.43,3.31,18.43,3.612929791,18.43,3.10934566
18.44,3.252,18.44,8.08600302,18.44,3.131293639
18.45,3.217,18.45,17.8414009,18.45,3.144317646
18.46,3.197,18.46,31.19117735,18.46,3.136930875
18.47,3.232,18.47,35.0187015,18.47,3.143601169
18.48,3.251,18.48,22.81867012,18.48,3.148111913
18.49,3.263,18.49,-1.661518455,18.49,3.142676922
18.5,3.256,18.5,3.550542866,18.5,3.169156554
18.51,3.264,18.51,9.848957031,18.51,3.172064648
18.52,3.269,18.52,15.07929818,18.52,3.159369985
18.53,3.264,18.53,15.65192339,18.53,3.173293527
18.54,3.29,18.54,12.69070928,18.54,3.168670873
18.55,3.293,18.55,10.12075349,18.55,3.177715659
18.56,3.281,18.56,9.307162912,18.56,3.176902185
18.57,3.295,18.57,7.866009404,18.57,3.167254712
18.58,3.291,18.58,6.433479229,18.58,3.156004631
18.59,3.3,18.59,5.135300298,18.59,3.175245767
18.6,3.299,18.6,4.582630667,18.6,3.187872248
18.61,3.29,18.61,4.479825804,18.61,3.175798354
18.62,3.279,18.62,3.466278519,18.62,3.183741287
18.63,3.298,18.63,3.838452252,18.63,3.186292264
18.64,3.31,18.64,3.374558357,18.64,3.156466757
18.65,3.298,18.65,3.94183161,18.65,3.153491002
18.66,3.306,18.66,7.142674267,18.66,3.160804064
18.67,3.309,18.67,8.854259563,18.67,3.158181285
18.68,3.28,18.68,8.567716038,18.68,3.175229016
18.69,3.277,18.69,7.139177555,18.69,3.16102614
18.7,3.284,18.7,8.271387765,18.7,3.167720535
18.71,3.281,18.71,10.51197127,18.71,3.164737548
18.72,3.297,18.72,9.771897865,18.72,3.17152444
18.73,3.283,18.73,6.798000684,18.73,3.130083259
18.74,3.29,18.74,10.1256235,18.74,3.073647909
18.75,3.287,18.75,9.971384781,18.75,3.114885521
18.76,3.294,18.76,13.76703005,18.76,3.193773728
18.77,3.253,18.77,18.63534457,18.77,3.237151909
18.78,3.198,18.78,19.45720396,18.78,3.281832971
18.79,3.238,18.79,20.99870584,18.79,3.266775716
18.8,3.314,18.8,19.31185359,18.8,3.200087962
18.81,3.355,18.81,18.00921969,18.81,3.143228641
18.82,3.399,18.82,22.5000235,18.82,3.14301013
18.83,3.387,18.83,22.4396058,18.83,3.146182507
18.84,3.325,18.84,18.01761742,18.84,3.149780542
18.85,3.271,18.85,18.46315033,18.85,3.168605909
18.86,3.271,18.86,20.30039463,18.86,3.157410263
18.87,3.272,18.87,24.89910046,18.87,3.157067832
18.88,3.273,18.88,25.59829014,18.88,3.126369721
18.89,3.29,18.89,21.70617598,18.89,2.919066545
18.9,3.279,18.9,21.01118053,18.9,2.69503338
18.91,3.279,18.91,26.01717952,18.91,2.8703404
18.92,3.249,18.92,30.31792176,18.92,4.180931671
18.93,3.046,18.93,29.48519599,18.93,4.238877474
18.94,2.826,18.94,24.31085327,18.94,3.097097929
18.95,2.995,18.95,17.00158294,18.95,2.524306311
18.96,4.273,18.96,11.00099284,18.96,2.72490733
18.97,4.32,18.97,12.07159498,18.97,3.015860067
18.98,3.216,18.98,15.94622245,18.98,3.139017802
18.99,2.682,18.99,18.88751639,18.99,3.161987439
19,2.899,19,18.60117037,19,3.176034098
19.01,3.16,19.01,21.60965161,19.01,3.183551051
19.02,3.245,19.02,19.25206959,19.02,3.174474945
19.03,3.26,19.03,18.53104879,19.03,3.170338802
19.04,3.285,19.04,17.24678453,19.04,3.156225543
19.05,3.301,19.05,13.98901594,19.05,3.158940073
19.06,3.295,19.06,11.12466191,19.06,3.142040155
19.07,3.292,19.07,7.316151619,19.07,3.138154452
19.08,3.279,19.08,9.201751448,19.08,3.133631576
19.09,3.282,19.09,17.28178745,19.09,3.081878111
19.1,3.265,19.1,13.74734934,19.1,3.109871971
19.11,3.261,19.11,21.39180623,19.11,3.162925025
19.12,3.256,19.12,41.3728639,19.12,3.196194861
19.13,3.205,19.13,47.18797543,19.13,3.250508907
19.14,3.232,19.14,49.95509203,19.14,3.298548457
19.15,3.283,19.15,50.79776624,19.15,3.342812757
19.16,3.315,19.16,47.2303823,19.16,3.359815128
19.17,3.368,19.17,41.45171285,19.17,3.332434531
19.18,3.417,19.18,41.84961219,19.18,3.26678433
19.19,3.463,19.19,42.49593847,19.19,3.171631138
19.2,3.482,19.2,40.15905734,19.2,3.095745734
19.21,3.458,19.21,33.946773,19.21,3.087410245
19.22,3.396,19.22,28.11554331,19.22,3.099883824
19.23,3.304,19.23,23.78717672,19.23,3.112995667
19.24,3.229,19.24,19.71550221,19.24,3.109048544
19.25,3.218,19.25,16.83240047,19.25,3.138632062
19.26,3.226,19.26,12.62287669,19.26,3.135386305
19.27,3.235,19.27,9.967609506,19.27,3.151071139
19.28,3.229,19.28,8.568908329,19.28,3.166168515
19.29,3.258,19.29,7.737658044,19.29,3.150924148
19.3,3.255,19.3,8.001768671,19.3,3.166791433
19.31,3.271,19.31,8.41335845,19.31,3.176568583
19.32,3.286,19.32,9.045854547,19.32,3.170027484
19.33,3.272,19.33,9.832174131,19.33,3.179168778
19.34,3.288,19.34,10.92182987,19.34,3.172569538
19.35,3.298,19.35,11.5531365,19.35,3.164070343
19.36,3.292,19.36,11.58302855,19.36,3.159073526
19.37,3.301,19.37,11.07740372,19.37,3.16514302
19.38,3.295,19.38,10.50598557,19.38,3.176743354
19.39,3.287,19.39,11.6716203,19.39,3.166788606
19.4,3.282,19.4,13.35764225,19.4,3.171729869
19.41,3.288,19.41,12.867112,19.41,3.170542969
19.42,3.299,19.42,11.9389805,19.42,3.1723481
19.43,3.289,19.43,14.21207783,19.43,3.18174483
19.44,3.294,19.44,13.57963797,19.44,3.176517937
19.45,3.293,19.45,17.59359828,19.45,3.165146699
19.46,3.295,19.46,20.79761214,19.46,3.142574075
19.47,3.304,19.47,21.31050453,19.47,3.160858845
19.48,3.299,19.48,26.99386458,19.48,3.18399178
19.49,3.288,19.49,28.55261113,19.49,3.158938482
19.5,3.266,19.5,27.37795836,19.5,3.158856241
19.51,3.284,19.51,26.39613665,19.51,3.176750963
19.52,3.306,19.52,27.91814858,19.52,3.17147947
19.53,3.281,19.53,25.31792778,19.53,3.165765309
19.54,3.281,19.54,25.27712919,19.54,3.120698162
19.55,3.299,19.55,28.5319315,19.55,3.080491286
19.56,3.294,19.56,28.40079397,19.56,3.114944774
19.57,3.288,19.57,26.52441504,19.57,3.190913665
19.58,3.244,19.58,29.0422481,19.58,3.236266824
19.59,3.205,19.59,37.07551223,19.59,3.279643067
19.6,3.238,19.6,47.3466318,19.6,3.280083305
19.61,3.311,19.61,48.53043054,19.61,3.203313412
19.62,3.354,19.62,38.53757783,19.62,3.162457744
19.63,3.397,19.63,27.83427279,19.63,3.159178169
19.64,3.4,19.64,23.42950378,19.64,3.141440545
19.65,3.328,19.65,24.4007557,19.65,3.148117777
19.66,3.29,19.66,26.24104132,19.66,3.144441745
19.67,3.287,19.67,27.35779025,19.67,3.127416868
19.68,3.268,19.68,26.78979696,19.68,3.156456919
19.69,3.272,19.69,27.004071,19.69,3.120075432
19.7,3.267,19.7,25.3892364,19.7,2.926273685
19.71,3.25,19.71,19.88270394,19.71,2.661331688
19.72,3.278,19.72,20.48637709,19.72,2.967119265
19.73,3.242,19.73,18.33643668,19.73,4.301093337
19.74,3.052,19.74,19.30716116,19.74,4.16672164
19.75,2.792,19.75,15.75234817,19.75,2.972213233
19.76,3.09,19.76,16.83926197,19.76,2.476761722
19.77,4.39,19.77,9.111185401,19.77,2.762209463
19.78,4.25,19.78,-2.541673745,19.78,3.059203093
19.79,3.096,19.79,1.289708128,19.79,3.134414161
19.8,2.639,19.8,9.288217373,19.8,3.163011408
19.81,2.936,19.81,12.45380168,19.81,3.179632161
19.82,3.198,19.82,10.41571563,19.82,3.17037971
19.83,3.237,19.83,18.14580727,19.83,3.174570571
19.84,3.261,19.84,28.25970187,19.84,3.170422019
19.85,3.29,19.85,31.90247518,19.85,3.179716263
19.86,3.289,19.86,24.65228344,19.86,3.15832116
19.87,3.295,19.87,10.94501222,19.87,3.128424161
19.88,3.292,19.88,8.445935451,19.88,3.126563017
19.89,3.302,19.89,10.70463456,19.89,3.120946334
19.9,3.281,19.9,15.30673381,19.9,3.110788271
19.91,3.252,19.91,19.06732,19.91,3.124944938
19.92,3.25,19.92,19.78195046,19.92,3.146709308
19.93,3.244,19.93,16.84700425,19.93,3.19888629
19.94,3.233,19.94,12.7823999,19.94,3.256903075
19.95,3.246,19.95,10.79355304,19.95,3.314687199
19.96,3.267,19.96,7.300200004,19.96,3.35741822
