Time,Original,Time,Noisy,Time,RLS Filtered
0.01,3.307,0.01,3.526705098,0.01,3.287731521
0.02,3.297,0.02,3.586,0.02,3.283816772
0.03,3.293,0.03,3.526705098,0.03,3.276735942
0.04,3.289,0.04,3.380705098,0.04,3.278429735
0.05,3.284,0.05,3.184294902,0.05,3.268779044
0.06,3.286,0.06,3.032294902,0.06,3.271268479
0.07,3.284,0.07,2.986,0.07,3.288183228
0.08,3.288,0.08,3.073294902,0.08,3.323264058
0.09,3.277,0.09,3.210294902,0.09,3.312570265
0.1,3.275,0.1,3.381705098,0.1,3.297220956
0.11,3.286,0.11,3.531705098,0.11,3.292731521
0.12,3.316,0.12,3.58,0.12,3.277816772
0.13,3.303,0.13,3.511705098,0.13,3.261735942
0.14,3.289,0.14,3.351705098,0.14,3.249429735
0.15,3.289,0.15,3.142294902,0.15,3.226779044
0.16,3.28,0.16,2.981294902,0.16,3.220268479
0.17,3.269,0.17,2.956,0.17,3.258183228
0.18,3.259,0.18,3.110294902,0.18,3.360264058
0.19,3.235,0.19,3.300294902,0.19,3.402570265
0.2,3.224,0.2,3.485705098,0.2,3.401220956
0.21,3.256,0.21,3.616705098,0.21,3.377731521
0.22,3.353,0.22,3.616,0.22,3.313816772
0.23,3.393,0.23,3.519705098,0.23,3.269735942
0.24,3.393,0.24,3.372705098,0.24,3.270429735
0.25,3.374,0.25,3.187294902,0.25,3.271779044
0.26,3.316,0.26,3.026294902,0.26,3.265268479
0.27,3.277,0.27,2.966,0.27,3.268183228
0.28,3.28,0.28,3.021294902,0.28,3.271264058
0.29,3.28,0.29,3.155294902,0.29,3.257570265
0.3,3.269,0.3,3.326705098,0.3,3.242220956
0.31,3.266,0.31,3.292705098,0.31,3.053731521
0.32,3.264,0.32,3.072,0.32,2.769816772
0.33,3.248,0.33,3.155705098,0.33,2.905735942
0.34,3.234,0.34,4.522705098,0.34,4.420429735
0.35,3.05,0.35,4.365294902,0.35,4.449779044
0.36,2.772,0.36,3.040294902,0.36,3.279268479
0.37,2.913,0.37,2.228,0.37,2.530183228
0.38,4.43,0.38,2.518294902,0.38,2.768264058
0.39,4.458,0.39,3.043294902,0.39,3.145570265
0.4,3.283,0.4,3.357705098,0.4,3.273220956
0.41,2.528,0.41,3.487705098,0.41,3.248731521
0.42,2.761,0.42,3.533,0.42,3.230816772
0.43,3.136,0.43,3.515705098,0.43,3.265735942
0.44,3.265,0.44,3.393705098,0.44,3.291429735
0.45,3.245,0.45,3.207294902,0.45,3.291779044
0.46,3.233,0.46,3.062294902,0.46,3.301268479
0.47,3.273,0.47,2.99,0.47,3.292183228
0.48,3.301,0.48,3.018294902,0.48,3.268264058
0.49,3.3,0.49,3.164294902,0.49,3.266570265
0.5,3.305,0.5,3.341705098,0.5,3.257220956
0.51,3.29,0.51,3.480705098,0.51,3.241731521
0.52,3.261,0.52,3.553,0.52,3.250816772
0.53,3.257,0.53,3.482705098,0.53,3.232735942
0.54,3.249,0.54,3.352705098,0.54,3.250429735
0.55,3.238,0.55,3.242294902,0.55,3.326779044
0.56,3.253,0.56,3.169294902,0.56,3.408268479
0.57,3.24,0.57,3.192,0.57,3.494183228
0.58,3.26,0.58,3.290294902,0.58,3.540264058
0.59,3.335,0.59,3.410294902,0.59,3.512570265
0.6,3.412,0.6,3.494705098,0.6,3.410220956
0.61,3.492,0.61,3.565705098,0.61,3.326731521
0.62,3.533,0.62,3.542,0.62,3.239816772
0.63,3.503,0.63,3.462705098,0.63,3.212735942
0.64,3.402,0.64,3.295705098,0.64,3.193429735
0.65,3.323,0.65,3.128294902,0.65,3.212779044
0.66,3.242,0.66,2.992294902,0.66,3.231268479
0.67,3.22,0.67,2.95,0.67,3.252183228
0.68,3.203,0.68,3.036294902,0.68,3.286264058
0.69,3.221,0.69,3.178294902,0.69,3.280570265
0.7,3.235,0.7,3.361705098,0.7,3.277220956
0.71,3.25,0.71,3.511705098,0.71,3.272731521
0.72,3.279,0.72,3.572,0.72,3.269816772
0.73,3.271,0.73,3.536705098,0.73,3.286735942
0.74,3.269,0.74,3.387705098,0.74,3.285429735
0.75,3.269,0.75,3.207294902,0.75,3.291779044
0.76,3.272,0.76,3.056294902,0.76,3.295268479
0.77,3.294,0.77,2.991,0.77,3.293183228
0.78,3.295,0.78,3.040294902,0.78,3.290264058
0.79,3.3,0.79,3.207294902,0.79,3.309570265
0.8,3.299,0.8,3.382705098,0.8,3.298220956
0.81,3.291,0.81,3.529705098,0.81,3.290731521
0.82,3.283,0.82,3.592,0.82,3.289816772
0.83,3.3,0.83,3.541705098,0.83,3.291735942
0.84,3.29,0.84,3.410705098,0.84,3.308429735
0.85,3.287,0.85,3.199294902,0.85,3.283779044
0.86,3.292,0.86,3.041294902,0.86,3.280268479
0.87,3.299,0.87,2.989,0.87,3.291183228
0.88,3.318,0.88,3.046294902,0.88,3.296264058
0.89,3.292,0.89,3.182294902,0.89,3.284570265
0.9,3.284,0.9,3.388705098,0.9,3.304220956
0.91,3.289,0.91,3.546705098,0.91,3.307731521
0.92,3.289,0.92,3.606,0.92,3.303816772
0.93,3.275,0.93,3.531705098,0.93,3.281735942
0.94,3.296,0.94,3.366705098,0.94,3.264429735
0.95,3.304,0.95,3.184294902,0.95,3.268779044
0.96,3.306,0.96,3.047294902,0.96,3.286268479
0.97,3.289,0.97,2.984,0.97,3.286183228
0.98,3.274,0.98,3.030294902,0.98,3.280264058
0.99,3.277,0.99,3.191294902,0.99,3.293570265
1,3.29,1,3.382705098,1,3.298220956
1.01,3.284,1.01,3.533705098,1.01,3.294731521
1.02,3.273,1.02,3.528,1.02,3.225816772
1.03,3.284,1.03,3.448705098,1.03,3.198735942
1.04,3.29,1.04,3.354705098,1.04,3.252429735
1.05,3.291,1.05,3.238294902,1.05,3.322779044
1.06,3.228,1.06,3.118294902,1.06,3.357268479
1.07,3.206,1.07,3.103,1.07,3.405183228
1.08,3.262,1.08,3.127294902,1.08,3.377264058
1.09,3.331,1.09,3.227294902,1.09,3.329570265
1.1,3.361,1.1,3.376705098,1.1,3.292220956
1.11,3.403,1.11,3.517705098,1.11,3.278731521
1.12,3.37,1.12,3.571,1.12,3.268816772
1.13,3.32,1.13,3.519705098,1.13,3.269735942
1.14,3.284,1.14,3.395705098,1.14,3.293429735
1.15,3.275,1.15,3.189294902,1.15,3.273779044
1.16,3.271,1.16,3.023294902,1.16,3.262268479
1.17,3.277,1.17,2.833,1.17,3.135183228
1.18,3.303,1.18,2.629294902,1.18,2.879264058
1.19,3.282,1.19,2.638294902,1.19,2.740570265
1.2,3.266,1.2,3.910705098,1.2,3.826220956
1.21,3.133,1.21,4.700705098,1.21,4.461731521
1.22,2.872,1.22,4.049,1.22,3.746816772
1.23,2.731,1.23,2.953705098,1.23,2.703735942
1.24,3.818,1.24,2.759705098,1.24,2.657429735
1.25,4.458,1.25,2.933294902,1.25,3.017779044
1.26,3.749,1.26,2.977294902,1.26,3.216268479
1.27,2.711,1.27,2.964,1.27,3.266183228
1.28,2.667,1.28,3.034294902,1.28,3.284264058
1.29,3.026,1.29,3.213294902,1.29,3.315570265
1.3,3.22,1.3,3.413705098,1.3,3.329220956
1.31,3.264,1.31,3.529705098,1.31,3.290731521
1.32,3.277,1.32,3.596,1.32,3.293816772
1.33,3.306,1.33,3.532705098,1.33,3.282735942
1.34,3.321,1.34,3.349705098,1.34,3.247429735
1.35,3.287,1.35,3.144294902,1.35,3.228779044
1.36,3.296,1.36,3.014294902,1.36,3.253268479
1.37,3.29,1.37,2.956,1.37,3.258183228
1.38,3.257,1.38,3.008294902,1.38,3.258264058
1.39,3.237,1.39,3.157294902,1.39,3.259570265
1.4,3.257,1.4,3.383705098,1.4,3.299220956
1.41,3.256,1.41,3.570705098,1.41,3.331731521
1.42,3.251,1.42,3.664,1.42,3.361816772
1.43,3.25,1.43,3.672705098,1.43,3.422735942
1.44,3.291,1.44,3.587705098,1.44,3.485429735
1.45,3.328,1.45,3.393294902,1.45,3.477779044
1.46,3.364,1.46,3.196294902,1.46,3.435268479
1.47,3.43,1.47,3.065,1.47,3.367183228
1.48,3.495,1.48,3.041294902,1.48,3.291264058
1.49,3.486,1.49,3.154294902,1.49,3.256570265
1.5,3.439,1.5,3.309705098,1.5,3.225220956
1.51,3.365,1.51,3.451705098,1.51,3.212731521
1.52,3.284,1.52,3.496,1.52,3.193816772
1.53,3.247,1.53,3.480705098,1.53,3.230735942
1.54,3.217,1.54,3.373705098,1.54,3.271429735
1.55,3.209,1.55,3.167294902,1.55,3.251779044
1.56,3.196,1.56,3.028294902,1.56,3.267268479
1.57,3.238,1.57,2.989,1.57,3.291183228
1.58,3.281,1.58,3.043294902,1.58,3.293264058
1.59,3.26,1.59,3.194294902,1.59,3.296570265
1.6,3.271,1.6,3.363705098,1.6,3.279220956
1.61,3.289,1.61,3.520705098,1.61,3.281731521
1.62,3.286,1.62,3.6,1.62,3.297816772
1.63,3.287,1.63,3.537705098,1.63,3.287735942
1.64,3.271,1.64,3.380705098,1.64,3.278429735
1.65,3.278,1.65,3.185294902,1.65,3.269779044
1.66,3.3,1.66,3.043294902,1.66,3.282268479
1.67,3.295,1.67,3.014,1.67,3.316183228
1.68,3.288,1.68,3.062294902,1.68,3.312264058
1.69,3.278,1.69,3.201294902,1.69,3.303570265
1.7,3.286,1.7,3.398705098,1.7,3.314220956
1.71,3.314,1.71,3.551705098,1.71,3.312731521
1.72,3.305,1.72,3.592,1.72,3.289816772
1.73,3.294,1.73,3.525705098,1.73,3.275735942
1.74,3.306,1.74,3.369705098,1.74,3.267429735
1.75,3.309,1.75,3.159294902,1.75,3.243779044
1.76,3.292,1.76,3.041294902,1.76,3.280268479
1.77,3.283,1.77,2.997,1.77,3.299183228
1.78,3.277,1.78,3.037294902,1.78,3.287264058
1.79,3.252,1.79,3.192294902,1.79,3.294570265
1.8,3.284,1.8,3.340705098,1.8,3.256220956
1.81,3.297,1.81,3.458705098,1.81,3.219731521
1.82,3.28,1.82,3.558,1.82,3.255816772
1.83,3.285,1.83,3.562705098,1.83,3.312735942
1.84,3.248,1.84,3.463705098,1.84,3.361429735
1.85,3.216,1.85,3.304294902,1.85,3.388779044
1.86,3.258,1.86,3.138294902,1.86,3.377268479
1.87,3.32,1.87,3.012,1.87,3.314183228
1.88,3.371,1.88,3.026294902,1.88,3.276264058
1.89,3.397,1.89,3.197294902,1.89,3.299570265
1.9,3.381,1.9,3.374705098,1.9,3.290220956
1.91,3.312,1.91,3.520705098,1.91,3.281731521
1.92,3.269,1.92,3.562,1.92,3.259816772
1.93,3.29,1.93,3.493705098,1.93,3.243735942
1.94,3.282,1.94,3.376705098,1.94,3.274429735
1.95,3.278,1.95,3.125294902,1.95,3.209779044
1.96,3.262,1.96,2.759294902,1.96,2.998268479
1.97,3.251,1.97,2.462,1.97,2.764183228
1.98,3.284,1.98,2.958294902,1.98,3.208264058
1.99,3.218,1.99,4.365294902,1.99,4.467570265
2,3.002,2,4.297705098,2,4.213220956
2.01,2.762,2.01,3.264705098,2.01,3.025731521
2.02,3.201,2.02,2.949,2.02,2.646816772
2.03,4.458,2.03,3.188705098,2.03,2.938735942
2.04,4.205,2.04,3.295705098,2.04,3.193429735
2.05,3.022,2.05,3.147294902,2.05,3.231779044
2.06,2.649,2.06,2.999294902,2.06,3.238268479
2.07,2.946,2.07,2.984,2.07,3.286183228
2.08,3.203,2.08,3.056294902,2.08,3.306264058
2.09,3.24,2.09,3.226294902,2.09,3.328570265
2.1,3.242,2.1,3.389705098,2.1,3.305220956
2.11,3.284,2.11,3.531705098,2.11,3.292731521
2.12,3.299,2.12,3.586,2.12,3.283816772
2.13,3.319,2.13,3.491705098,2.13,3.241735942
2.14,3.297,2.14,3.333705098,2.14,3.231429735
2.15,3.289,2.15,3.140294902,2.15,3.224779044
2.16,3.286,2.16,2.988294902,2.16,3.227268479
2.17,3.249,2.17,2.953,2.17,3.255183228
2.18,3.241,2.18,3.031294902,2.18,3.281264058
2.19,3.233,2.19,3.211294902,2.19,3.313570265
2.2,3.231,2.2,3.441705098,2.2,3.357220956
2.21,3.253,2.21,3.679705098,2.21,3.440731521
2.22,3.274,2.22,3.795,2.22,3.492816772
2.23,3.304,2.23,3.738705098,2.23,3.488735942
2.24,3.349,2.24,3.555705098,2.24,3.453429735
2.25,3.437,2.25,3.281294902,2.25,3.365779044
2.26,3.495,2.26,3.064294902,2.26,3.303268479
2.27,3.496,2.27,2.958,2.27,3.260183228
2.28,3.463,2.28,2.973294902,2.28,3.223264058
2.29,3.374,2.29,3.108294902,2.29,3.210570265
2.3,3.307,2.3,3.304705098,2.3,3.220220956
2.31,3.258,2.31,3.479705098,2.31,3.240731521
2.32,3.216,2.32,3.551,2.32,3.248816772
2.33,3.201,2.33,3.506705098,2.33,3.256735942
2.34,3.212,2.34,3.367705098,2.34,3.265429735
2.35,3.237,2.35,3.170294902,2.35,3.254779044
2.36,3.251,2.36,3.032294902,2.36,3.271268479
2.37,3.264,2.37,3.002,2.37,3.304183228
2.38,3.275,2.38,3.055294902,2.38,3.305264058
2.39,3.263,2.39,3.202294902,2.39,3.304570265
2.4,3.275,2.4,3.382705098,2.4,3.298220956
2.41,3.302,2.41,3.520705098,2.41,3.281731521
2.42,3.298,2.42,3.577,2.42,3.274816772
2.43,3.295,2.43,3.523705098,2.43,3.273735942
2.44,3.29,2.44,3.381705098,2.44,3.279429735
2.45,3.278,2.45,3.203294902,2.45,3.287779044
2.46,3.277,2.46,3.064294902,2.46,3.303268479
2.47,3.281,2.47,3.008,2.47,3.310183228
2.48,3.289,2.48,3.069294902,2.48,3.319264058
2.49,3.296,2.49,3.209294902,2.49,3.311570265
2.5,3.307,2.5,3.383705098,2.5,3.299220956
2.51,3.308,2.51,3.523705098,2.51,3.284731521
2.52,3.312,2.52,3.596,2.52,3.293816772
2.53,3.302,2.53,3.523705098,2.53,3.273735942
2.54,3.291,2.54,3.385705098,2.54,3.283429735
2.55,3.281,2.55,3.183294902,2.55,3.267779044
2.56,3.296,2.56,3.010294902,2.56,3.249268479
2.57,3.281,2.57,2.979,2.57,3.281183228
2.58,3.293,2.58,3.016294902,2.58,3.266264058
2.59,3.276,2.59,3.138294902,2.59,3.240570265
2.6,3.253,2.6,3.336705098,2.6,3.252220956
2.61,3.279,2.61,3.552705098,2.61,3.313731521
2.62,3.259,2.62,3.643,2.62,3.340816772
2.63,3.231,2.63,3.632705098,2.63,3.382735942
2.64,3.244,2.64,3.499705098,2.64,3.397429735
2.65,3.31,2.65,3.235294902,2.65,3.319779044
2.66,3.343,2.66,3.034294902,2.66,3.273268479
2.67,3.39,2.67,2.985,2.67,3.287183228
2.68,3.407,2.68,3.018294902,2.68,3.268264058
2.69,3.328,2.69,3.180294902,2.69,3.282570265
2.7,3.277,2.7,3.383705098,2.7,3.299220956
2.71,3.285,2.71,3.545705098,2.71,3.306731521
2.72,3.261,2.72,3.558,2.72,3.255816772
2.73,3.273,2.73,3.292705098,2.73,3.042735942
2.74,3.291,2.74,2.872705098,2.74,2.770429735
2.75,3.303,2.75,2.780294902,2.75,2.864779044
2.76,3.258,2.76,4.032294902,2.76,4.271268479
2.77,3.05,2.77,4.158,2.77,4.460183228
2.78,2.78,2.78,3.068294902,2.78,3.318264058
2.79,2.873,2.79,2.563294902,2.79,2.665570265
2.8,4.275,2.8,2.947705098,2.8,2.863220956
2.81,4.458,2.81,3.387705098,2.81,3.148731521
2.82,3.311,2.82,3.527,2.82,3.224816772
2.83,2.656,2.83,3.505705098,2.83,3.255735942
2.84,2.855,2.84,3.367705098,2.84,3.265429735
2.85,3.145,2.85,3.201294902,2.85,3.285779044
2.86,3.227,2.86,3.049294902,2.86,3.288268479
2.87,3.263,2.87,2.984,2.87,3.286183228
2.88,3.275,2.88,3.045294902,2.88,3.295264058
2.89,3.294,2.89,3.198294902,2.89,3.300570265
2.9,3.292,2.9,3.358705098,2.9,3.274220956
2.91,3.284,2.91,3.506705098,2.91,3.267731521
2.92,3.288,2.92,3.563,2.92,3.260816772
2.93,3.291,2.93,3.478705098,2.93,3.228735942
2.94,3.266,2.94,3.303705098,2.94,3.201429735
2.95,3.264,2.95,3.145294902,2.95,3.229779044
2.96,3.263,2.96,3.055294902,2.96,3.294268479
2.97,3.236,2.97,3.046,2.97,3.348183228
2.98,3.211,2.98,3.177294902,2.98,3.427264058
2.99,3.238,2.99,3.394294902,2.99,3.496570265
3,3.298,3,3.610705098,3,3.526220956
3.01,3.346,3.01,3.726705098,3.01,3.487731521
3.02,3.42,3.02,3.702,3.02,3.399816772
3.03,3.487,3.03,3.564705098,3.03,3.314735942
3.04,3.518,3.04,3.342705098,3.04,3.240429735
3.05,3.484,3.05,3.122294902,3.05,3.206779044
3.06,3.402,3.06,2.956294902,3.06,3.195268479
3.07,3.322,3.07,2.912,3.07,3.214183228
3.08,3.25,3.08,2.996294902,3.08,3.246264058
3.09,3.215,3.09,3.153294902,3.09,3.255570265
3.1,3.199,3.1,3.343705098,3.1,3.259220956
3.11,3.212,3.11,3.520705098,3.11,3.281731521
3.12,3.239,3.12,3.587,3.12,3.284816772
3.13,3.246,3.13,3.523705098,3.13,3.273735942
3.14,3.251,3.14,3.356705098,3.14,3.254429735
3.15,3.278,3.15,3.185294902,3.15,3.269779044
3.16,3.287,3.16,3.042294902,3.16,3.281268479
3.17,3.281,3.17,2.995,3.17,3.297183228
3.18,3.264,3.18,3.056294902,3.18,3.306264058
3.19,3.278,3.19,3.189294902,3.19,3.291570265
3.2,3.285,3.2,3.387705098,3.2,3.303220956
3.21,3.295,3.21,3.545705098,3.21,3.306731521
3.22,3.299,3.22,3.599,3.22,3.296816772
3.23,3.282,3.23,3.527705098,3.23,3.277735942
3.24,3.295,3.24,3.394705098,3.24,3.292429735
3.25,3.303,3.25,3.217294902,3.25,3.301779044
3.26,3.299,3.26,3.066294902,3.26,3.305268479
3.27,3.285,3.27,2.984,3.27,3.286183228
3.28,3.302,3.28,3.035294902,3.28,3.285264058
3.29,3.31,3.29,3.186294902,3.29,3.288570265
3.3,3.309,3.3,3.392705098,3.3,3.308220956
3.31,3.284,3.31,3.547705098,3.31,3.308731521
3.32,3.278,3.32,3.585,3.32,3.282816772
3.33,3.279,3.33,3.519705098,3.33,3.269735942
3.34,3.3,3.34,3.372705098,3.34,3.270429735
3.35,3.305,3.35,3.169294902,3.35,3.253779044
3.36,3.285,3.36,2.973294902,3.36,3.212268479
3.37,3.277,3.37,2.913,3.37,3.215183228
3.38,3.28,3.38,3.052294902,3.38,3.302264058
3.39,3.262,3.39,3.274294902,3.39,3.376570265
3.4,3.216,3.4,3.496705098,3.4,3.412220956
3.41,3.213,3.41,3.644705098,3.41,3.405731521
3.42,3.295,3.42,3.646,3.42,3.343816772
3.43,3.367,3.43,3.531705098,3.43,3.281735942
3.44,3.404,3.44,3.370705098,3.44,3.268429735
3.45,3.402,3.45,3.170294902,3.45,3.254779044
3.46,3.346,3.46,3.011294902,3.46,3.250268479
3.47,3.289,3.47,2.961,3.47,3.263183228
3.48,3.278,3.48,3.030294902,3.48,3.280264058
3.49,3.263,3.49,3.180294902,3.49,3.282570265
3.5,3.254,3.5,3.353705098,3.5,3.269220956
3.51,3.261,3.51,3.348705098,3.51,3.109731521
3.52,3.273,3.52,3.147,3.52,2.844816772
3.53,3.273,3.53,3.005705098,3.53,2.755735942
3.54,3.261,3.54,4.155705098,3.54,4.053429735
3.55,3.106,3.55,4.365294902,3.55,4.449779044
3.56,2.847,3.56,3.266294902,3.56,3.505268479
3.57,2.763,3.57,2.367,3.57,2.669183228
3.58,4.063,3.58,2.545294902,3.58,2.795264058
3.59,4.458,3.59,3.016294902,3.59,3.118570265
3.6,3.509,3.6,3.324705098,3.6,3.240220956
3.61,2.667,3.61,3.504705098,3.61,3.265731521
3.62,2.788,3.62,3.569,3.62,3.266816772
3.63,3.109,3.63,3.511705098,3.63,3.261735942
3.64,3.232,3.64,3.381705098,3.64,3.279429735
3.65,3.262,3.65,3.217294902,3.65,3.301779044
3.66,3.269,3.66,3.079294902,3.66,3.318268479
3.67,3.269,3.67,2.986,3.67,3.288183228
3.68,3.289,3.68,3.014294902,3.68,3.264264058
3.69,3.31,3.69,3.146294902,3.69,3.248570265
3.7,3.322,3.7,3.316705098,3.7,3.232220956
3.71,3.286,3.71,3.476705098,3.71,3.237731521
3.72,3.257,3.72,3.547,3.72,3.244816772
3.73,3.239,3.73,3.510705098,3.73,3.260735942
3.74,3.224,3.74,3.385705098,3.74,3.283429735
3.75,3.234,3.75,3.249294902,3.75,3.333779044
3.76,3.247,3.76,3.179294902,3.76,3.418268479
3.77,3.268,3.77,3.179,3.77,3.481183228
3.78,3.293,3.78,3.273294902,3.78,3.523264058
3.79,3.342,3.79,3.396294902,3.79,3.498570265
3.8,3.422,3.8,3.482705098,3.8,3.398220956
3.81,3.479,3.81,3.567705098,3.81,3.328731521
3.82,3.516,3.82,3.562,3.82,3.259816772
3.83,3.489,3.83,3.456705098,3.83,3.206735942
3.84,3.39,3.84,3.293705098,3.84,3.191429735
3.85,3.325,3.85,3.108294902,3.85,3.192779044
3.86,3.262,3.86,2.982294902,3.86,3.221268479
3.87,3.214,3.87,2.958,3.87,3.260183228
3.88,3.201,3.88,3.040294902,3.88,3.290264058
3.89,3.201,3.89,3.192294902,3.89,3.294570265
3.9,3.225,3.9,3.368705098,3.9,3.284220956
3.91,3.258,3.91,3.518705098,3.91,3.279731521
3.92,3.283,3.92,3.577,3.92,3.274816772
3.93,3.285,3.93,3.521705098,3.93,3.271735942
3.94,3.276,3.94,3.366705098,3.94,3.264429735
3.95,3.276,3.95,3.188294902,3.95,3.272779044
3.96,3.277,3.96,3.058294902,3.96,3.297268479
3.97,3.279,3.97,3.001,3.97,3.303183228
3.98,3.274,3.98,3.052294902,3.98,3.302264058
3.99,3.281,3.99,3.190294902,3.99,3.292570265
4,3.301,4,3.394705098,4,3.310220956
4.01,3.301,4.01,3.549705098,4.01,3.310731521
4.02,3.295,4.02,3.605,4.02,3.302816772
4.03,3.283,4.03,3.537705098,4.03,3.287735942
4.04,3.302,4.04,3.389705098,4.04,3.287429735
4.05,3.307,4.05,3.188294902,4.05,3.272779044
4.06,3.305,4.06,3.033294902,4.06,3.272268479
4.07,3.295,4.07,2.993,4.07,3.295183228
4.08,3.297,4.08,3.059294902,4.08,3.309264058
4.09,3.281,4.09,3.198294902,4.09,3.300570265
4.1,3.276,4.1,3.365705098,4.1,3.281220956
4.11,3.293,4.11,3.524705098,4.11,3.285731521
4.12,3.302,4.12,3.586,4.12,3.283816772
4.13,3.291,4.13,3.512705098,4.13,3.262735942
4.14,3.273,4.14,3.304705098,4.14,3.202429735
4.15,3.282,4.15,3.109294902,4.15,3.193779044
4.16,3.286,4.16,3.045294902,4.16,3.284268479
4.17,3.27,4.17,3.055,4.17,3.357183228
4.18,3.212,4.18,3.132294902,4.18,3.382264058
4.19,3.202,4.19,3.292294902,4.19,3.394570265
4.2,3.288,4.2,3.450705098,4.2,3.366220956
4.21,3.355,4.21,3.561705098,4.21,3.322731521
4.22,3.375,4.22,3.58,4.22,3.277816772
4.23,3.385,4.23,3.529705098,4.23,3.279735942
4.24,3.358,4.24,3.370705098,4.24,3.268429735
4.25,3.319,4.25,3.184294902,4.25,3.268779044
4.26,3.28,4.26,3.032294902,4.26,3.271268479
4.27,3.287,4.27,2.968,4.27,3.270183228
4.28,3.278,4.28,3.026294902,4.28,3.276264058
4.29,3.277,4.29,3.054294902,4.29,3.156570265
4.3,3.275,4.3,3.014705098,4.3,2.930220956
4.31,3.268,4.31,3.013705098,4.31,2.774731521
4.32,3.269,4.32,4.069,4.32,3.766816772
4.33,3.147,4.33,4.700705098,4.33,4.450735942
4.34,2.922,4.34,3.864705098,4.34,3.762429735
4.35,2.771,4.35,2.606294902,4.35,2.690779044
4.36,3.769,4.36,2.402294902,4.36,2.641268479
4.37,4.458,4.37,2.695,4.37,2.997183228
4.38,3.772,4.38,2.961294902,4.38,3.211264058
4.39,2.699,4.39,3.169294902,4.39,3.271570265
4.4,2.645,4.4,3.383705098,4.4,3.299220956
4.41,2.995,4.41,3.562705098,4.41,3.323731521
4.42,3.204,4.42,3.602,4.42,3.299816772
4.43,3.262,4.43,3.534705098,4.43,3.284735942
4.44,3.291,4.44,3.397705098,4.44,3.295429735
4.45,3.32,4.45,3.207294902,4.45,3.291779044
4.46,3.302,4.46,3.044294902,4.46,3.283268479
4.47,3.292,4.47,2.959,4.47,3.261183228
4.48,3.305,4.48,3.008294902,4.48,3.258264058
4.49,3.3,4.49,3.153294902,4.49,3.255570265
4.5,3.287,4.5,3.314705098,4.5,3.230220956
4.51,3.259,4.51,3.491705098,4.51,3.252731521
4.52,3.251,4.52,3.572,4.52,3.269816772
4.53,3.246,4.53,3.569705098,4.53,3.319735942
4.54,3.222,4.54,3.480705098,4.54,3.378429735
4.55,3.249,4.55,3.353294902,4.55,3.437779044
4.56,3.272,4.56,3.267294902,4.56,3.506268479
4.57,3.327,4.57,3.189,4.57,3.491183228
4.58,3.388,4.58,3.181294902,4.58,3.431264058
4.59,3.446,4.59,3.246294902,4.59,3.348570265
4.6,3.51,4.6,3.346705098,4.6,3.262220956
4.61,3.489,4.61,3.462705098,4.61,3.223731521
4.62,3.424,4.62,3.511,4.62,3.208816772
4.63,3.339,4.63,3.484705098,4.63,3.234735942
4.64,3.254,4.64,3.336705098,4.64,3.234429735
4.65,3.22,4.65,3.152294902,4.65,3.236779044
4.66,3.211,4.66,3.020294902,4.66,3.259268479
4.67,3.242,4.67,2.968,4.67,3.270183228
4.68,3.244,4.68,3.027294902,4.68,3.277264058
4.69,3.245,4.69,3.182294902,4.69,3.284570265
4.7,3.263,4.7,3.387705098,4.7,3.303220956
4.71,3.268,4.71,3.541705098,4.71,3.302731521
4.72,3.27,4.72,3.571,4.72,3.268816772
4.73,3.275,4.73,3.519705098,4.73,3.269735942
4.74,3.295,4.74,3.389705098,4.74,3.287429735
4.75,3.299,4.75,3.193294902,4.75,3.277779044
4.76,3.271,4.76,3.047294902,4.76,3.286268479
4.77,3.277,4.77,2.982,4.77,3.284183228
4.78,3.297,4.78,3.047294902,4.78,3.297264058
4.79,3.286,4.79,3.210294902,4.79,3.312570265
4.8,3.29,4.8,3.390705098,4.8,3.306220956
4.81,3.282,4.81,3.542705098,4.81,3.303731521
4.82,3.29,4.82,3.592,4.82,3.289816772
4.83,3.303,4.83,3.512705098,4.83,3.262735942
4.84,3.298,4.84,3.401705098,4.84,3.299429735
4.85,3.3,4.85,3.208294902,4.85,3.292779044
4.86,3.292,4.86,3.040294902,4.86,3.279268479
4.87,3.27,4.87,2.98,4.87,3.282183228
4.88,3.309,4.88,3.037294902,4.88,3.287264058
4.89,3.301,4.89,3.191294902,4.89,3.293570265
4.9,3.283,4.9,3.323705098,4.9,3.239220956
4.91,3.28,4.91,3.459705098,4.91,3.220731521
4.92,3.28,4.92,3.56,4.92,3.257816772
4.93,3.284,4.93,3.579705098,4.93,3.329735942
4.94,3.231,4.94,3.480705098,4.94,3.378429735
4.95,3.217,4.95,3.301294902,4.95,3.385779044
4.96,3.26,4.96,3.103294902,4.96,3.342268479
4.97,3.337,4.97,2.994,4.97,3.296183228
4.98,3.388,4.98,3.051294902,4.98,3.301264058
4.99,3.394,4.99,3.202294902,4.99,3.304570265
5,3.346,5,3.361705098,5,3.277220956
5.01,3.294,5.01,3.517705098,5.01,3.278731521
5.02,3.294,5.02,3.582,5.02,3.279816772
5.03,3.295,5.03,3.514705098,5.03,3.264735942
5.04,3.269,5.04,3.358705098,5.04,3.256429735
5.05,3.275,5.05,3.063294902,5.05,3.147779044
5.06,3.282,5.06,2.675294902,5.06,2.914268479
5.07,3.272,5.07,2.411,5.07,2.713183228
5.08,3.266,5.08,3.357294902,5.08,3.607264058
5.09,3.156,5.09,4.365294902,5.09,4.467570265
5.1,2.918,5.1,3.933705098,5.1,3.849220956
5.11,2.711,5.11,3.084705098,5.11,2.845731521
5.12,3.6,5.12,3.043,5.12,2.740816772
5.13,4.458,5.13,3.308705098,5.13,3.058735942
5.14,3.841,5.14,3.312705098,5.14,3.210429735
5.15,2.842,5.15,3.154294902,5.15,3.238779044
5.16,2.743,5.16,3.042294902,5.16,3.281268479
5.17,3.066,5.17,2.997,5.17,3.299183228
5.18,3.22,5.18,3.047294902,5.18,3.297264058
5.19,3.247,5.19,3.192294902,5.19,3.294570265
5.2,3.285,5.2,3.356705098,5.2,3.272220956
5.21,3.297,5.21,3.522705098,5.21,3.283731521
5.22,3.29,5.22,3.579,5.22,3.276816772
5.23,3.285,5.23,3.515705098,5.23,3.265735942
5.24,3.264,5.24,3.340705098,5.24,3.238429735
5.25,3.28,5.25,3.139294902,5.25,3.223779044
5.26,3.279,5.26,2.999294902,5.26,3.238268479
5.27,3.273,5.27,2.944,5.27,3.246183228
5.28,3.248,5.28,3.030294902,5.28,3.280264058
5.29,3.232,5.29,3.228294902,5.29,3.330570265
5.3,3.242,5.3,3.480705098,5.3,3.396220956
5.31,3.244,5.31,3.718705098,5.31,3.479731521
5.32,3.273,5.32,3.817,5.32,3.514816772
5.33,3.321,5.33,3.729705098,5.33,3.479735942
5.34,3.388,5.34,3.511705098,5.34,3.409429735
5.35,3.476,5.35,3.255294902,5.35,3.339779044
5.36,3.517,5.36,3.020294902,5.36,3.259268479
5.37,3.487,5.37,2.901,5.37,3.203183228
5.38,3.419,5.38,2.968294902,5.38,3.218264058
5.39,3.348,5.39,3.138294902,5.39,3.240570265
5.4,3.263,5.4,3.321705098,5.4,3.237220956
5.41,3.201,5.41,3.481705098,5.41,3.242731521
5.42,3.211,5.42,3.563,5.42,3.260816772
5.43,3.231,5.43,3.521705098,5.43,3.271735942
5.44,3.229,5.44,3.365705098,5.44,3.263429735
5.45,3.239,5.45,3.173294902,5.45,3.257779044
5.46,3.263,5.46,3.015294902,5.46,3.254268479
5.47,3.279,5.47,2.973,5.47,3.275183228
5.48,3.273,5.48,3.064294902,5.48,3.314264058
5.49,3.266,5.49,3.212294902,5.49,3.314570265
5.5,3.258,5.5,3.385705098,5.5,3.301220956
5.51,3.273,5.51,3.549705098,5.51,3.310731521
5.52,3.307,5.52,3.599,5.52,3.296816772
5.53,3.305,5.53,3.532705098,5.53,3.282735942
5.54,3.293,5.54,3.377705098,5.54,3.275429735
5.55,3.307,5.55,3.198294902,5.55,3.282779044
5.56,3.299,5.56,3.055294902,5.56,3.294268479
5.57,3.29,5.57,2.986,5.57,3.288183228
5.58,3.285,5.58,3.043294902,5.58,3.293264058
5.59,3.291,5.59,3.209294902,5.59,3.311570265
5.6,3.298,5.6,3.398705098,5.6,3.314220956
5.61,3.286,5.61,3.550705098,5.61,3.311731521
5.62,3.286,5.62,3.59,5.62,3.287816772
5.63,3.302,5.63,3.511705098,5.63,3.261735942
5.64,3.306,5.64,3.357705098,5.64,3.255429735
5.65,3.308,5.65,3.188294902,5.65,3.272779044
5.66,3.29,5.66,3.039294902,5.66,3.278268479
5.67,3.269,5.67,2.917,5.67,3.219183228
5.68,3.265,5.68,2.972294902,5.68,3.222264058
5.69,3.281,5.69,3.193294902,5.69,3.295570265
5.7,3.282,5.7,3.444705098,5.7,3.360220956
5.71,3.217,5.71,3.629705098,5.71,3.390731521
5.72,3.215,5.72,3.679,5.72,3.376816772
5.73,3.286,5.73,3.586705098,5.73,3.336735942
5.74,3.352,5.74,3.411705098,5.74,3.309429735
5.75,3.387,5.75,3.195294902,5.75,3.279779044
5.76,3.379,5.76,3.035294902,5.76,3.274268479
5.77,3.344,5.77,2.981,5.77,3.283183228
5.78,3.319,5.78,3.023294902,5.78,3.273264058
5.79,3.288,5.79,3.165294902,5.79,3.267570265
5.8,3.278,5.8,3.362705098,5.8,3.278220956
5.81,3.281,5.81,3.522705098,5.81,3.283731521
5.82,3.266,5.82,3.431,5.82,3.128816772
5.83,3.258,5.83,3.120705098,5.83,2.870735942
5.84,3.27,5.84,2.811705098,5.84,2.709429735
5.85,3.28,5.85,3.724294902,5.85,3.808779044
5.86,3.131,5.86,4.215294902,5.86,4.454268479
5.87,2.878,5.87,3.394,5.87,3.696183228
5.88,2.719,5.88,2.516294902,5.88,2.766264058
5.89,3.817,5.89,2.675294902,5.89,2.777570265
5.9,4.458,5.9,3.164705098,5.9,3.080220956
5.91,3.694,5.91,3.452705098,5.91,3.213731521
5.92,2.759,5.92,3.541,5.92,3.238816772
5.93,2.768,5.93,3.507705098,5.93,3.257735942
5.94,3.072,5.94,3.379705098,5.94,3.277429735
5.95,3.21,5.95,3.213294902,5.95,3.297779044
5.96,3.241,5.96,3.071294902,5.96,3.310268479
5.97,3.265,5.97,2.984,5.97,3.286183228
5.98,3.287,5.98,3.023294902,5.98,3.273264058
5.99,3.306,5.99,3.162294902,5.99,3.264570265
6,3.314,6,3.349705098,6,3.265220956
6.01,3.284,6.01,3.498705098,6.01,3.259731521
6.02,3.266,6.02,3.544,6.02,3.241816772
6.03,3.255,6.03,3.495705098,6.03,3.245735942
6.04,3.257,6.04,3.355705098,6.04,3.253429735
6.05,3.256,6.05,3.188294902,6.05,3.272779044
6.06,3.244,6.06,3.086294902,6.06,3.325268479
6.07,3.253,6.07,3.1,6.07,3.402183228
6.08,3.263,6.08,3.220294902,6.08,3.470264058
6.09,3.281,6.09,3.411294902,6.09,3.513570265
6.1,3.329,6.1,3.584705098,6.1,3.500220956
6.11,3.4,6.11,3.659705098,6.11,3.420731521
6.12,3.463,6.12,3.631,6.12,3.328816772
6.13,3.504,6.13,3.501705098,6.13,3.251735942
6.14,3.492,6.14,3.317705098,6.14,3.215429735
6.15,3.417,6.15,3.121294902,6.15,3.205779044
6.16,3.331,6.16,2.971294902,6.16,3.210268479
6.17,3.259,6.17,2.931,6.17,3.233183228
6.18,3.225,6.18,2.991294902,6.18,3.241264058
6.19,3.214,6.19,3.172294902,6.19,3.274570265
6.2,3.214,6.2,3.370705098,6.2,3.286220956
6.21,3.231,6.21,3.515705098,6.21,3.276731521
6.22,3.234,6.22,3.588,6.22,3.285816772
6.23,3.265,6.23,3.529705098,6.23,3.279735942
6.24,3.278,6.24,3.381705098,6.24,3.279429735
6.25,3.273,6.25,3.198294902,6.25,3.282779044
6.26,3.288,6.26,3.032294902,6.26,3.271268479
6.27,3.287,6.27,2.981,6.27,3.283183228
6.28,3.289,6.28,3.046294902,6.28,3.296264058
6.29,3.291,6.29,3.218294902,6.29,3.320570265
6.3,3.275,6.3,3.372705098,6.3,3.288220956
6.31,3.281,6.31,3.513705098,6.31,3.274731521
6.32,3.289,6.32,3.608,6.32,3.305816772
6.33,3.311,6.33,3.555705098,6.33,3.305735942
6.34,3.28,6.34,3.402705098,6.34,3.300429735
6.35,3.271,6.35,3.208294902,6.35,3.292779044
6.36,3.308,6.36,3.057294902,6.36,3.296268479
6.37,3.313,6.37,2.993,6.37,3.295183228
6.38,3.31,6.38,3.036294902,6.38,3.286264058
6.39,3.301,6.39,3.196294902,6.39,3.298570265
6.4,3.3,6.4,3.373705098,6.4,3.289220956
6.41,3.293,6.41,3.519705098,6.41,3.280731521
6.42,3.279,6.42,3.57,6.42,3.267816772
6.43,3.289,6.43,3.514705098,6.43,3.264735942
6.44,3.281,6.44,3.377705098,6.44,3.275429735
6.45,3.277,6.45,3.176294902,6.45,3.260779044
6.46,3.27,6.46,2.991294902,6.46,3.230268479
6.47,3.272,6.47,2.92,6.47,3.222183228
6.48,3.285,6.48,3.037294902,6.48,3.287264058
6.49,3.269,6.49,3.264294902,6.49,3.366570265
6.5,3.234,6.5,3.500705098,6.5,3.416220956
6.51,3.22,6.51,3.652705098,6.51,3.413731521
6.52,3.28,6.52,3.646,6.52,3.343816772
6.53,3.357,6.53,3.523705098,6.53,3.273735942
6.54,3.408,6.54,3.357705098,6.54,3.255429735
6.55,3.41,6.55,3.178294902,6.55,3.262779044
6.56,3.346,6.56,3.048294902,6.56,3.287268479
6.57,3.281,6.57,2.974,6.57,3.276183228
6.58,3.265,6.58,3.014294902,6.58,3.264264058
6.59,3.271,6.59,3.181294902,6.59,3.283570265
6.6,3.291,6.6,3.371705098,6.6,3.287220956
6.61,3.274,6.61,3.394705098,6.61,3.155731521
6.62,3.257,6.62,3.2,6.62,2.897816772
6.63,3.274,6.63,2.946705098,6.63,2.696735942
6.64,3.279,6.64,3.892705098,6.64,3.790429735
6.65,3.152,6.65,4.365294902,6.65,4.449779044
6.66,2.9,6.66,3.474294902,6.66,3.713268479
6.67,2.704,6.67,2.436,6.67,2.738183228
6.68,3.8,6.68,2.474294902,6.68,2.724264058
6.69,4.458,6.69,2.985294902,6.69,3.087570265
6.7,3.717,6.7,3.328705098,6.7,3.244220956
6.71,2.736,6.71,3.505705098,6.71,3.266731521
6.72,2.717,6.72,3.568,6.72,3.265816772
6.73,3.078,6.73,3.514705098,6.73,3.264735942
6.74,3.236,6.74,3.389705098,6.74,3.287429735
6.75,3.263,6.75,3.206294902,6.75,3.290779044
6.76,3.268,6.76,3.056294902,6.76,3.295268479
6.77,3.272,6.77,2.98,6.77,3.282183228
6.78,3.297,6.78,3.024294902,6.78,3.274264058
6.79,3.299,6.79,3.177294902,6.79,3.279570265
6.8,3.299,6.8,3.318705098,6.8,3.234220956
6.81,3.28,6.81,3.481705098,6.81,3.242731521
6.82,3.267,6.82,3.546,6.82,3.243816772
6.83,3.27,6.83,3.498705098,6.83,3.248735942
6.84,3.226,6.84,3.383705098,6.84,3.281429735
6.85,3.239,6.85,3.242294902,6.85,3.326779044
6.86,3.246,6.86,3.143294902,6.86,3.382268479
6.87,3.256,6.87,3.147,6.87,3.449183228
6.88,3.291,6.88,3.247294902,6.88,3.497264058
6.89,3.335,6.89,3.379294902,6.89,3.481570265
6.9,3.386,6.9,3.512705098,6.9,3.428220956
6.91,3.447,6.91,3.604705098,6.91,3.365731521
6.92,3.49,6.92,3.595,6.92,3.292816772
6.93,3.472,6.93,3.472705098,6.93,3.222735942
6.94,3.42,6.94,3.289705098,6.94,3.187429735
6.95,3.362,6.95,3.112294902,6.95,3.196779044
6.96,3.295,6.96,2.979294902,6.96,3.218268479
6.97,3.23,6.97,2.934,6.97,3.236183228
6.98,3.197,6.98,3.015294902,6.98,3.265264058
6.99,3.205,6.99,3.185294902,6.99,3.287570265
7,3.222,7,3.364705098,7,3.280220956
7.01,3.234,7.01,3.524705098,7.01,3.285731521
7.02,3.258,7.02,3.581,7.02,3.278816772
7.03,3.278,7.03,3.512705098,7.03,3.262735942
7.04,3.272,7.04,3.391705098,7.04,3.289429735
7.05,3.282,7.05,3.213294902,7.05,3.297779044
7.06,3.281,7.06,3.066294902,7.06,3.305268479
7.07,3.27,7.07,3,7.07,3.302183228
7.08,3.299,7.08,3.051294902,7.08,3.301264058
7.09,3.306,7.09,3.188294902,7.09,3.290570265
7.1,3.309,7.1,3.371705098,7.1,3.287220956
7.11,3.3,7.11,3.535705098,7.11,3.296731521
7.12,3.294,7.12,3.596,7.12,3.293816772
7.13,3.281,7.13,3.517705098,7.13,3.267735942
7.14,3.279,7.14,3.384705098,7.14,3.282429735
7.15,3.293,7.15,3.211294902,7.15,3.295779044
7.16,3.296,7.16,3.056294902,7.16,3.295268479
7.17,3.275,7.17,3.011,7.17,3.313183228
7.18,3.292,7.18,3.051294902,7.18,3.301264058
7.19,3.304,7.19,3.190294902,7.19,3.292570265
7.2,3.299,7.2,3.365705098,7.2,3.281220956
7.21,3.311,7.21,3.522705098,7.21,3.283731521
7.22,3.294,7.22,3.58,7.22,3.277816772
7.23,3.283,7.23,3.517705098,7.23,3.267735942
7.24,3.273,7.24,3.388705098,7.24,3.286429735
7.25,3.28,7.25,3.139294902,7.25,3.223779044
7.26,3.28,7.26,2.967294902,7.26,3.206268479
7.27,3.275,7.27,2.961,7.27,3.263183228
7.28,3.296,7.28,3.085294902,7.28,3.335264058
7.29,3.232,7.29,3.293294902,7.29,3.395570265
7.3,3.21,7.3,3.500705098,7.3,3.416220956
7.31,3.261,7.31,3.604705098,7.31,3.365731521
7.32,3.328,7.32,3.589,7.32,3.286816772
7.33,3.386,7.33,3.507705098,7.33,3.257735942
7.34,3.408,7.34,3.380705098,7.34,3.278429735
7.35,3.362,7.35,3.192294902,7.35,3.276779044
7.36,3.289,7.36,3.043294902,7.36,3.282268479
7.37,3.265,7.37,2.97,7.37,3.272183228
7.38,3.288,7.38,3.028294902,7.38,3.278264058
7.39,3.285,7.39,3.188294902,7.39,3.290570265
7.4,3.286,7.4,3.288705098,7.4,3.204220956
7.41,3.27,7.41,3.245705098,7.41,3.006731521
7.42,3.271,7.42,3.056,7.42,2.753816772
7.43,3.281,7.43,3.624705098,7.43,3.374735942
7.44,3.196,7.44,4.550705098,7.44,4.448429735
7.45,3.003,7.45,3.963294902,7.45,4.047779044
7.46,2.756,7.46,2.657294902,7.46,2.896268479
7.47,3.382,7.47,2.35,7.47,2.652183228
7.48,4.458,7.48,2.717294902,7.48,2.967264058
7.49,4.056,7.49,3.090294902,7.49,3.192570265
7.5,2.9,7.5,3.331705098,7.5,3.247220956
7.51,2.65,7.51,3.498705098,7.51,3.259731521
7.52,2.96,7.52,3.579,7.52,3.276816772
7.53,3.183,7.53,3.539705098,7.53,3.289735942
7.54,3.239,7.54,3.406705098,7.54,3.304429735
7.55,3.256,7.55,3.202294902,7.55,3.286779044
7.56,3.279,7.56,3.044294902,7.56,3.283268479
7.57,3.297,7.57,2.992,7.57,3.294183228
7.58,3.314,7.58,3.029294902,7.58,3.279264058
7.59,3.295,7.59,3.146294902,7.59,3.248570265
7.6,3.287,7.6,3.326705098,7.6,3.242220956
7.61,3.292,7.61,3.486705098,7.61,3.247731521
7.62,3.272,7.62,3.547,7.62,3.244816772
7.63,3.239,7.63,3.520705098,7.63,3.270735942
7.64,3.234,7.64,3.421705098,7.64,3.319429735
7.65,3.244,7.65,3.285294902,7.65,3.369779044
7.66,3.247,7.66,3.205294902,7.66,3.444268479
7.67,3.278,7.67,3.2,7.67,3.502183228
7.68,3.329,7.68,3.244294902,7.68,3.494264058
7.69,3.378,7.69,3.340294902,7.69,3.442570265
7.7,3.448,7.7,3.448705098,7.7,3.364220956
7.71,3.5,7.71,3.512705098,7.71,3.273731521
7.72,3.487,7.72,3.523,7.72,3.220816772
7.73,3.433,7.73,3.453705098,7.73,3.203735942
7.74,3.356,7.74,3.311705098,7.74,3.209429735
7.75,3.27,7.75,3.139294902,7.75,3.223779044
7.76,3.223,7.76,3.010294902,7.76,3.249268479
7.77,3.211,7.77,2.959,7.77,3.261183228
7.78,3.219,7.78,3.016294902,7.78,3.266264058
7.79,3.232,7.79,3.175294902,7.79,3.277570265
7.8,3.253,7.8,3.357705098,7.8,3.273220956
7.81,3.259,7.81,3.520705098,7.81,3.281731521
7.82,3.259,7.82,3.6,7.82,3.297816772
7.83,3.268,7.83,3.541705098,7.83,3.291735942
7.84,3.265,7.84,3.396705098,7.84,3.294429735
7.85,3.278,7.85,3.184294902,7.85,3.268779044
7.86,3.3,7.86,3.046294902,7.86,3.285268479
7.87,3.299,7.87,3.001,7.87,3.303183228
7.88,3.304,7.88,3.053294902,7.88,3.303264058
7.89,3.277,7.89,3.206294902,7.89,3.308570265
7.9,3.289,7.9,3.379705098,7.9,3.295220956
7.91,3.301,7.91,3.543705098,7.91,3.304731521
7.92,3.296,7.92,3.606,7.92,3.303816772
7.93,3.299,7.93,3.532705098,7.93,3.282735942
7.94,3.287,7.94,3.381705098,7.94,3.279429735
7.95,3.301,7.95,3.189294902,7.95,3.273779044
7.96,3.306,7.96,3.050294902,7.96,3.289268479
7.97,3.29,7.97,2.983,7.97,3.285183228
7.98,3.289,7.98,3.040294902,7.98,3.290264058
7.99,3.282,7.99,3.183294902,7.99,3.285570265
8,3.293,8,3.383705098,8,3.299220956
8.01,3.283,8.01,3.523705098,8.01,3.284731521
8.02,3.283,8.02,3.54,8.02,3.237816772
8.03,3.276,8.03,3.455705098,8.03,3.205735942
8.04,3.291,8.04,3.376705098,8.04,3.274429735
8.05,3.281,8.05,3.256294902,8.05,3.340779044
8.06,3.24,8.06,3.141294902,8.06,3.380268479
8.07,3.213,8.07,3.095,8.07,3.397183228
8.08,3.284,8.08,3.093294902,8.08,3.343264058
8.09,3.349,8.09,3.207294902,8.09,3.309570265
8.1,3.384,8.1,3.362705098,8.1,3.278220956
8.11,3.395,8.11,3.514705098,8.11,3.275731521
8.12,3.336,8.12,3.577,8.12,3.274816772
8.13,3.3,8.13,3.516705098,8.13,3.266735942
8.14,3.27,8.14,3.362705098,8.14,3.260429735
8.15,3.272,8.15,3.171294902,8.15,3.255779044
8.16,3.277,8.16,3.021294902,8.16,3.260268479
8.17,3.274,8.17,2.826,8.17,3.128183228
8.18,3.27,8.18,2.624294902,8.18,2.874264058
8.19,3.264,8.19,2.692294902,8.19,2.794570265
8.2,3.264,8.2,4.145705098,8.2,4.061220956
8.21,3.126,8.21,4.700705098,8.21,4.461731521
8.22,2.867,8.22,3.769,8.22,3.466816772
8.23,2.785,8.23,2.928705098,8.23,2.678735942
8.24,4.053,8.24,2.897705098,8.24,2.795429735
8.25,4.458,8.25,3.020294902,8.25,3.104779044
8.26,3.469,8.26,2.994294902,8.26,3.233268479
8.27,2.686,8.27,2.955,8.27,3.257183228
8.28,2.805,8.28,3.026294902,8.28,3.276264058
8.29,3.113,8.29,3.202294902,8.29,3.304570265
8.3,3.237,8.3,3.398705098,8.3,3.314220956
8.31,3.255,8.31,3.540705098,8.31,3.301731521
8.32,3.269,8.32,3.592,8.32,3.289816772
8.33,3.295,8.33,3.519705098,8.33,3.269735942
8.34,3.306,8.34,3.364705098,8.34,3.262429735
8.35,3.298,8.35,3.145294902,8.35,3.229779044
8.36,3.292,8.36,3.001294902,8.36,3.240268479
8.37,3.277,8.37,2.95,8.37,3.252183228
8.38,3.272,8.38,2.997294902,8.38,3.247264058
8.39,3.238,8.39,3.177294902,8.39,3.279570265
8.4,3.244,8.4,3.387705098,8.4,3.303220956
8.41,3.25,8.41,3.567705098,8.41,3.328731521
8.42,3.24,8.42,3.71,8.42,3.407816772
8.43,3.27,8.43,3.728705098,8.43,3.478735942
8.44,3.295,8.44,3.603705098,8.44,3.501429735
8.45,3.325,8.45,3.369294902,8.45,3.453779044
8.46,3.41,8.46,3.146294902,8.46,3.385268479
8.47,3.486,8.47,3.015,8.47,3.317183228
8.48,3.511,8.48,3.013294902,8.48,3.263264058
8.49,3.462,8.49,3.132294902,8.49,3.234570265
8.5,3.389,8.5,3.291705098,8.5,3.207220956
8.51,3.315,8.51,3.449705098,8.51,3.210731521
8.52,3.256,8.52,3.535,8.52,3.232816772
8.53,3.225,8.53,3.495705098,8.53,3.245735942
8.54,3.199,8.54,3.356705098,8.54,3.254429735
8.55,3.207,8.55,3.171294902,8.55,3.255779044
8.56,3.235,8.56,3.036294902,8.56,3.275268479
8.57,3.253,8.57,2.977,8.57,3.279183228
8.58,3.264,8.58,3.050294902,8.58,3.300264058
8.59,3.264,8.59,3.197294902,8.59,3.299570265
8.6,3.279,8.6,3.383705098,8.6,3.299220956
8.61,3.277,8.61,3.540705098,8.61,3.301731521
8.62,3.293,8.62,3.604,8.62,3.301816772
8.63,3.29,8.63,3.532705098,8.63,3.282735942
8.64,3.291,8.64,3.368705098,8.64,3.266429735
8.65,3.298,8.65,3.198294902,8.65,3.282779044
8.66,3.304,8.66,3.053294902,8.66,3.292268479
8.67,3.29,8.67,3.006,8.67,3.308183228
8.68,3.276,8.68,3.060294902,8.68,3.310264058
8.69,3.291,8.69,3.217294902,8.69,3.319570265
8.7,3.296,8.7,3.388705098,8.7,3.304220956
8.71,3.306,8.71,3.536705098,8.71,3.297731521
8.72,3.303,8.72,3.612,8.72,3.309816772
8.73,3.31,8.73,3.519705098,8.73,3.269735942
8.74,3.296,8.74,3.384705098,8.74,3.282429735
8.75,3.294,8.75,3.199294902,8.75,3.283779044
8.76,3.312,8.76,3.028294902,8.76,3.267268479
8.77,3.277,8.77,2.978,8.77,3.280183228
8.78,3.292,8.78,3.038294902,8.78,3.288264058
8.79,3.292,8.79,3.183294902,8.79,3.285570265
8.8,3.271,8.8,3.306705098,8.8,3.222220956
8.81,3.278,8.81,3.447705098,8.81,3.208731521
8.82,3.281,8.82,3.567,8.82,3.264816772
8.83,3.276,8.83,3.582705098,8.83,3.332735942
8.84,3.214,8.84,3.474705098,8.84,3.372429735
8.85,3.205,8.85,3.306294902,8.85,3.390779044
8.86,3.267,8.86,3.113294902,8.86,3.352268479
8.87,3.34,8.87,3.011,8.87,3.313183228
8.88,3.382,8.88,3.043294902,8.88,3.293264058
8.89,3.399,8.89,3.187294902,8.89,3.289570265
8.9,3.356,8.9,3.364705098,8.9,3.280220956
8.91,3.311,8.91,3.508705098,8.91,3.269731521
8.92,3.286,8.92,3.58,8.92,3.277816772
8.93,3.28,8.93,3.534705098,8.93,3.284735942
8.94,3.272,8.94,3.381705098,8.94,3.279429735
8.95,3.266,8.95,3.116294902,8.95,3.200779044
8.96,3.28,8.96,2.744294902,8.96,2.983268479
8.97,3.292,8.97,2.439,8.97,2.741183228
8.98,3.289,8.98,3.043294902,8.98,3.293264058
8.99,3.209,8.99,4.365294902,8.99,4.467570265
9,2.987,9,4.223705098,9,4.139220956
9.01,2.739,9.01,3.172705098,9.01,2.933731521
9.02,3.286,9.02,2.927,9.02,2.624816772
9.03,4.458,9.03,3.188705098,9.03,2.938735942
9.04,4.131,9.04,3.275705098,9.04,3.173429735
9.05,2.93,9.05,3.146294902,9.05,3.230779044
9.06,2.627,9.06,3.019294902,9.06,3.258268479
9.07,2.946,9.07,3.002,9.07,3.304183228
9.08,3.183,9.08,3.060294902,9.08,3.310264058
9.09,3.239,9.09,3.197294902,9.09,3.299570265
9.1,3.262,9.1,3.386705098,9.1,3.302220956
9.11,3.302,9.11,3.532705098,9.11,3.293731521
9.12,3.303,9.12,3.595,9.12,3.292816772
9.13,3.29,9.13,3.508705098,9.13,3.258735942
9.14,3.294,9.14,3.337705098,9.14,3.235429735
9.15,3.29,9.15,3.155294902,9.15,3.239779044
9.16,3.295,9.16,2.996294902,9.16,3.235268479
9.17,3.266,9.17,2.949,9.17,3.251183228
9.18,3.245,9.18,3.026294902,9.18,3.276264058
9.19,3.248,9.19,3.226294902,9.19,3.328570265
9.2,3.239,9.2,3.464705098,9.2,3.380220956
9.21,3.249,9.21,3.681705098,9.21,3.442731521
9.22,3.269,9.22,3.806,9.22,3.503816772
9.23,3.319,9.23,3.738705098,9.23,3.488735942
9.24,3.372,9.24,3.523705098,9.24,3.421429735
9.25,3.439,9.25,3.264294902,9.25,3.348779044
9.26,3.506,9.26,3.054294902,9.26,3.293268479
9.27,3.496,9.27,2.949,9.27,3.251183228
9.28,3.431,9.28,2.965294902,9.28,3.215264058
9.29,3.357,9.29,3.126294902,9.29,3.228570265
9.3,3.297,9.3,3.318705098,9.3,3.234220956
9.31,3.249,9.31,3.476705098,9.31,3.237731521
9.32,3.208,9.32,3.547,9.32,3.244816772
9.33,3.219,9.33,3.485705098,9.33,3.235735942
9.34,3.226,9.34,3.347705098,9.34,3.245429735
9.35,3.234,9.35,3.169294902,9.35,3.253779044
9.36,3.247,9.36,3.040294902,9.36,3.279268479
9.37,3.243,9.37,3.003,9.37,3.305183228
9.38,3.255,9.38,3.060294902,9.38,3.310264058
9.39,3.262,9.39,3.205294902,9.39,3.307570265
9.4,3.283,9.4,3.387705098,9.4,3.303220956
9.41,3.303,9.41,3.541705098,9.41,3.302731521
9.42,3.303,9.42,3.608,9.42,3.305816772
9.43,3.298,9.43,3.522705098,9.43,3.272735942
9.44,3.295,9.44,3.380705098,9.44,3.278429735
9.45,3.299,9.45,3.207294902,9.45,3.291779044
9.46,3.308,9.46,3.042294902,9.46,3.281268479
9.47,3.28,9.47,2.993,9.47,3.295183228
9.48,3.288,9.48,3.067294902,9.48,3.317264058
9.49,3.3,9.49,3.213294902,9.49,3.315570265
9.5,3.285,9.5,3.386705098,9.5,3.302220956
9.51,3.293,9.51,3.529705098,9.51,3.290731521
9.52,3.31,9.52,3.584,9.52,3.281816772
9.53,3.306,9.53,3.537705098,9.53,3.287735942
9.54,3.294,9.54,3.389705098,9.54,3.287429735
9.55,3.287,9.55,3.185294902,9.55,3.269779044
9.56,3.284,9.56,3.032294902,9.56,3.271268479
9.57,3.295,9.57,2.986,9.57,3.288183228
9.58,3.297,9.58,3.037294902,9.58,3.287264058
9.59,3.278,9.59,3.188294902,9.59,3.290570265
9.6,3.275,9.6,3.311705098,9.6,3.227220956
9.61,3.286,9.61,3.432705098,9.61,3.193731521
9.62,3.28,9.62,3.573,9.62,3.270816772
9.63,3.281,9.63,3.597705098,9.63,3.347735942
9.64,3.219,9.64,3.494705098,9.64,3.392429735
9.65,3.19,9.65,3.334294902,9.65,3.418779044
9.66,3.273,9.66,3.117294902,9.66,3.356268479
9.67,3.355,9.67,2.999,9.67,3.301183228
9.68,3.402,9.68,3.015294902,9.68,3.265264058
9.69,3.427,9.69,3.172294902,9.69,3.274570265
9.7,3.36,9.7,3.366705098,9.7,3.282220956
9.71,3.299,9.71,3.508705098,9.71,3.269731521
9.72,3.258,9.72,3.577,9.72,3.274816772
9.73,3.265,9.73,3.507705098,9.73,3.257735942
9.74,3.274,9.74,3.360705098,9.74,3.258429735
9.75,3.266,9.75,3.089294902,9.75,3.173779044
9.76,3.277,9.76,2.725294902,9.76,2.964268479
9.77,3.265,9.77,2.422,9.77,2.724183228
9.78,3.268,9.78,3.311294902,9.78,3.561264058
9.79,3.182,9.79,4.365294902,9.79,4.467570265
9.8,2.968,9.8,4.044705098,9.8,3.960220956
9.81,2.722,9.81,3.013705098,9.81,2.774731521
9.82,3.554,9.82,2.9,9.82,2.597816772
9.83,4.458,9.83,3.218705098,9.83,2.968735942
9.84,3.952,9.84,3.288705098,9.84,3.186429735
9.85,2.771,9.85,3.153294902,9.85,3.237779044
9.86,2.6,9.86,3.016294902,9.86,3.255268479
9.87,2.976,9.87,2.994,9.87,3.296183228
9.88,3.196,9.88,3.073294902,9.88,3.323264058
9.89,3.246,9.89,3.219294902,9.89,3.321570265
9.9,3.259,9.9,3.398705098,9.9,3.314220956
9.91,3.294,9.91,3.525705098,9.91,3.286731521
9.92,3.316,9.92,3.558,9.92,3.255816772
9.93,3.312,9.93,3.506705098,9.93,3.256735942
9.94,3.306,9.94,3.350705098,9.94,3.248429735
9.95,3.283,9.95,3.154294902,9.95,3.238779044
9.96,3.258,9.96,2.975294902,9.96,3.214268479
9.97,3.264,9.97,2.946,9.97,3.248183228
9.98,3.258,9.98,3.044294902,9.98,3.294264058
9.99,3.247,9.99,3.254294902,9.99,3.356570265
10,3.218,10,3.486705098,10,3.402220956
10.01,3.246,10.01,3.692705098,10.01,3.453731521
10.02,3.287,10.02,3.81,10.02,3.507816772
10.03,3.347,10.03,3.750705098,10.03,3.500735942
10.04,3.394,10.04,3.545705098,10.04,3.443429735
10.05,3.45,10.05,3.262294902,10.05,3.346779044
10.06,3.51,10.06,3.013294902,10.06,3.252268479
10.07,3.508,10.07,2.905,10.07,3.207183228
10.08,3.453,10.08,2.953294902,10.08,3.203264058
10.09,3.355,10.09,3.124294902,10.09,3.226570265
10.1,3.256,10.1,3.326705098,10.1,3.242220956
10.11,3.205,10.11,3.488705098,10.11,3.249731521
10.12,3.196,10.12,3.567,10.12,3.264816772
10.13,3.217,10.13,3.503705098,10.13,3.253735942
10.14,3.234,10.14,3.363705098,10.14,3.261429735
10.15,3.246,10.15,3.177294902,10.15,3.261779044
10.16,3.267,10.16,3.014294902,10.16,3.253268479
10.17,3.261,10.17,2.986,10.17,3.288183228
10.18,3.271,10.18,3.055294902,10.18,3.305264058
10.19,3.27,10.19,3.217294902,10.19,3.319570265
10.2,3.257,10.2,3.391705098,10.2,3.307220956
10.21,3.286,10.21,3.530705098,10.21,3.291731521
10.22,3.298,10.22,3.603,10.22,3.300816772
10.23,3.31,10.23,3.546705098,10.23,3.296735942
10.24,3.299,10.24,3.375705098,10.24,3.273429735
10.25,3.288,10.25,3.187294902,10.25,3.271779044
10.26,3.303,10.26,3.045294902,10.26,3.284268479
10.27,3.304,10.27,3.011,10.27,3.313183228
10.28,3.283,10.28,3.066294902,10.28,3.316264058
10.29,3.28,10.29,3.198294902,10.29,3.300570265
10.3,3.288,10.3,3.385705098,10.3,3.301220956
10.31,3.311,10.31,3.522705098,10.31,3.283731521
10.32,3.309,10.32,3.582,10.32,3.279816772
10.33,3.291,10.33,3.528705098,10.33,3.278735942
10.34,3.293,10.34,3.365705098,10.34,3.263429735
10.35,3.28,10.35,3.195294902,10.35,3.279779044
10.36,3.282,10.36,3.040294902,10.36,3.279268479
10.37,3.286,10.37,3.004,10.37,3.306183228
10.38,3.273,10.38,2.998294902,10.38,3.248264058
10.39,3.288,10.39,3.098294902,10.39,3.200570265
10.4,3.283,10.4,3.345705098,10.4,3.261220956
10.41,3.304,10.41,3.561705098,10.41,3.322731521
10.42,3.241,10.42,3.671,10.42,3.368816772
10.43,3.191,10.43,3.664705098,10.43,3.414735942
10.44,3.253,10.44,3.472705098,10.44,3.370429735
10.45,3.319,10.45,3.207294902,10.45,3.291779044
10.46,3.371,10.46,3.039294902,10.46,3.278268479
10.47,3.422,10.47,2.973,10.47,3.275183228
10.48,3.38,10.48,3.020294902,10.48,3.270264058
10.49,3.3,10.49,3.173294902,10.49,3.275570265
10.5,3.282,10.5,3.384705098,10.5,3.300220956
10.51,3.273,10.51,3.516705098,10.51,3.277731521
10.52,3.263,10.52,3.577,10.52,3.274816772
10.53,3.266,10.53,3.462705098,10.53,3.212735942
10.54,3.292,10.54,3.132705098,10.54,3.030429735
10.55,3.274,10.55,2.709294902,10.55,2.793779044
10.56,3.277,10.56,2.911294902,10.56,3.150268479
10.57,3.22,10.57,4.143,10.57,4.445183228
10.58,3.04,10.58,4.057294902,10.58,4.307264058
10.59,2.802,10.59,2.980294902,10.59,3.082570265
10.6,3.154,10.6,2.669705098,10.6,2.585220956
10.61,4.443,10.61,3.099705098,10.61,2.860731521
10.62,4.3,10.62,3.44,10.62,3.137816772
10.63,3.073,10.63,3.489705098,10.63,3.239735942
10.64,2.577,10.64,3.369705098,10.64,3.267429735
10.65,2.857,10.65,3.202294902,10.65,3.286779044
10.66,3.14,10.66,3.048294902,10.66,3.287268479
10.67,3.247,10.67,3.016,10.67,3.318183228
10.68,3.277,10.68,3.064294902,10.68,3.314264058
10.69,3.295,10.69,3.178294902,10.69,3.280570265
10.7,3.291,10.7,3.362705098,10.7,3.278220956
10.71,3.316,10.71,3.499705098,10.71,3.260731521
10.72,3.307,10.72,3.561,10.72,3.258816772
10.73,3.271,10.73,3.473705098,10.73,3.223735942
10.74,3.27,10.74,3.327705098,10.74,3.225429735
10.75,3.257,10.75,3.156294902,10.75,3.240779044
10.76,3.261,10.76,3.039294902,10.76,3.278268479
10.77,3.231,10.77,3.028,10.77,3.330183228
10.78,3.235,10.78,3.129294902,10.78,3.379264058
10.79,3.249,10.79,3.329294902,10.79,3.431570265
10.8,3.282,10.8,3.584705098,10.8,3.500220956
10.81,3.328,10.81,3.754705098,10.81,3.515731521
10.82,3.372,10.82,3.769,10.82,3.466816772
10.83,3.422,10.83,3.603705098,10.83,3.353735942
10.84,3.492,10.84,3.369705098,10.84,3.267429735
10.85,3.512,10.85,3.148294902,10.85,3.232779044
10.86,3.469,10.86,2.962294902,10.86,3.201268479
10.87,3.361,10.87,2.905,10.87,3.207183228
10.88,3.277,10.88,2.978294902,10.88,3.228264058
10.89,3.241,10.89,3.150294902,10.89,3.252570265
10.9,3.205,10.9,3.346705098,10.9,3.262220956
10.91,3.205,10.91,3.498705098,10.91,3.259731521
10.92,3.221,10.92,3.578,10.92,3.275816772
10.93,3.243,10.93,3.529705098,10.93,3.279735942
10.94,3.254,10.94,3.376705098,10.94,3.274429735
10.95,3.256,10.95,3.207294902,10.95,3.291779044
10.96,3.278,10.96,3.042294902,10.96,3.281268479
10.97,3.287,10.97,2.993,10.97,3.295183228
10.98,3.284,10.98,3.046294902,10.98,3.296264058
10.99,3.3,10.99,3.180294902,10.99,3.282570265
11,3.285,11,3.382705098,11,3.298220956
11.01,3.293,11.01,3.534705098,11.01,3.295731521
11.02,3.289,11.02,3.592,11.02,3.289816772
11.03,3.273,11.03,3.540705098,11.03,3.290735942
11.04,3.29,11.04,3.397705098,11.04,3.295429735
11.05,3.292,11.05,3.213294902,11.05,3.297779044
11.06,3.292,11.06,3.049294902,11.06,3.288268479
11.07,3.298,11.07,3.008,11.07,3.310183228
11.08,3.305,11.08,3.046294902,11.08,3.296264058
11.09,3.306,11.09,3.189294902,11.09,3.291570265
11.1,3.292,11.1,3.387705098,11.1,3.303220956
11.11,3.308,11.11,3.526705098,11.11,3.287731521
11.12,3.289,11.12,3.581,11.12,3.278816772
11.13,3.282,11.13,3.517705098,11.13,3.267735942
11.14,3.295,11.14,3.317705098,11.14,3.215429735
11.15,3.284,11.15,3.124294902,11.15,3.208779044
11.16,3.281,11.16,3.025294902,11.16,3.264268479
11.17,3.275,11.17,3.035,11.17,3.337183228
11.18,3.225,11.18,3.131294902,11.18,3.381264058
11.19,3.217,11.19,3.286294902,11.19,3.388570265
11.2,3.268,11.2,3.442705098,11.2,3.358220956
11.21,3.335,11.21,3.551705098,11.21,3.312731521
11.22,3.374,11.22,3.588,11.22,3.285816772
11.23,3.379,11.23,3.522705098,11.23,3.272735942
11.24,3.35,11.24,3.354705098,11.24,3.252429735
11.25,3.309,11.25,3.169294902,11.25,3.253779044
11.26,3.288,11.26,3.022294902,11.26,3.261268479
11.27,3.28,11.27,2.977,11.27,3.279183228
11.28,3.262,11.28,3.022294902,11.28,3.272264058
11.29,3.262,11.29,3.074294902,11.29,3.176570265
11.3,3.265,11.3,3.045705098,11.3,2.961220956
11.31,3.277,11.31,3.016705098,11.31,2.777731521
11.32,3.265,11.32,4.002,11.32,3.699816772
11.33,3.167,11.33,4.700705098,11.33,4.450735942
11.34,2.953,11.34,3.879705098,11.34,3.777429735
11.35,2.774,11.35,2.680294902,11.35,2.764779044
11.36,3.702,11.36,2.440294902,11.36,2.679268479
11.37,4.458,11.37,2.724,11.37,3.026183228
11.38,3.787,11.38,2.959294902,11.38,3.209264058
11.39,2.773,11.39,3.155294902,11.39,3.257570265
11.4,2.683,11.4,3.356705098,11.4,3.272220956
11.41,3.024,11.41,3.519705098,11.41,3.280731521
11.42,3.202,11.42,3.607,11.42,3.304816772
11.43,3.248,11.43,3.567705098,11.43,3.317735942
11.44,3.264,11.44,3.397705098,11.44,3.295429735
11.45,3.277,11.45,3.200294902,11.45,3.284779044
11.46,3.307,11.46,3.028294902,11.46,3.267268479
11.47,3.325,11.47,2.956,11.47,3.258183228
11.48,3.305,11.48,3.004294902,11.48,3.254264058
11.49,3.293,11.49,3.137294902,11.49,3.239570265
11.5,3.271,11.5,3.328705098,11.5,3.244220956
11.51,3.256,11.51,3.498705098,11.51,3.259731521
11.52,3.247,11.52,3.594,11.52,3.291816772
11.53,3.23,11.53,3.580705098,11.53,3.330735942
11.54,3.236,11.54,3.488705098,11.54,3.386429735
11.55,3.256,11.55,3.388294902,11.55,3.472779044
11.56,3.294,11.56,3.256294902,11.56,3.495268479
11.57,3.338,11.57,3.156,11.57,3.458183228
11.58,3.396,11.58,3.155294902,11.58,3.405264058
11.59,3.481,11.59,3.236294902,11.59,3.338570265
11.6,3.499,11.6,3.368705098,11.6,3.284220956
11.61,3.456,11.61,3.477705098,11.61,3.238731521
11.62,3.398,11.62,3.521,11.62,3.218816772
11.63,3.329,11.63,3.462705098,11.63,3.212735942
11.64,3.276,11.64,3.327705098,11.64,3.225429735
11.65,3.235,11.65,3.153294902,11.65,3.237779044
11.66,3.221,11.66,3.025294902,11.66,3.264268479
11.67,3.22,11.67,2.978,11.67,3.280183228
11.68,3.235,11.68,3.045294902,11.68,3.295264058
11.69,3.246,11.69,3.183294902,11.69,3.285570265
11.7,3.268,11.7,3.360705098,11.7,3.276220956
11.71,3.278,11.71,3.506705098,11.71,3.267731521
11.72,3.288,11.72,3.573,11.72,3.270816772
11.73,3.276,11.73,3.543705098,11.73,3.293735942
11.74,3.268,11.74,3.387705098,11.74,3.285429735
11.75,3.264,11.75,3.203294902,11.75,3.287779044
11.76,3.273,11.76,3.052294902,11.76,3.291268479
11.77,3.301,11.77,3.002,11.77,3.304183228
11.78,3.295,11.78,3.058294902,11.78,3.308264058
11.79,3.296,11.79,3.198294902,11.79,3.300570265
11.8,3.295,11.8,3.399705098,11.8,3.315220956
11.81,3.302,11.81,3.520705098,11.81,3.281731521
11.82,3.301,11.82,3.583,11.82,3.280816772
11.83,3.291,11.83,3.562705098,11.83,3.312735942
11.84,3.307,11.84,3.387705098,11.84,3.285429735
11.85,3.278,11.85,3.186294902,11.85,3.270779044
11.86,3.283,11.86,3.008294902,11.86,3.247268479
11.87,3.32,11.87,2.899,11.87,3.201183228
11.88,3.295,11.88,2.970294902,11.88,3.220264058
11.89,3.279,11.89,3.202294902,11.89,3.304570265
11.9,3.251,11.9,3.448705098,11.9,3.364220956
11.91,3.199,11.91,3.627705098,11.91,3.388731521
11.92,3.213,11.92,3.683,11.92,3.380816772
11.93,3.295,11.93,3.580705098,11.93,3.330735942
11.94,3.356,11.94,3.387705098,11.94,3.285429735
11.95,3.385,11.95,3.184294902,11.95,3.268779044
11.96,3.383,11.96,3.029294902,11.96,3.268268479
11.97,3.338,11.97,2.988,11.97,3.290183228
11.98,3.295,11.98,3.046294902,11.98,3.296264058
11.99,3.277,11.99,3.185294902,11.99,3.287570265
12,3.272,12,3.355705098,12,3.271220956
12.01,3.288,12.01,3.489705098,12.01,3.250731521
12.02,3.289,12.02,3.395,12.02,3.092816772
12.03,3.278,12.03,3.095705098,12.03,2.845735942
12.04,3.263,12.04,3.019705098,12.04,2.917429735
12.05,3.247,12.05,4.029294902,12.05,4.113779044
12.06,3.095,12.06,4.146294902,12.06,4.385268479
12.07,2.853,12.07,3.057,12.07,3.359183228
12.08,2.927,12.08,2.482294902,12.08,2.732264058
12.09,4.122,12.09,2.768294902,12.09,2.870570265
12.1,4.389,12.1,3.210705098,12.1,3.126220956
12.11,3.357,12.11,3.452705098,12.11,3.213731521
12.12,2.725,12.12,3.544,12.12,3.241816772
12.13,2.861,12.13,3.515705098,12.13,3.265735942
12.14,3.118,12.14,3.371705098,12.14,3.269429735
12.15,3.21,12.15,3.212294902,12.15,3.296779044
12.16,3.244,12.16,3.061294902,12.16,3.300268479
12.17,3.273,12.17,3.012,12.17,3.314183228
12.18,3.279,12.18,3.051294902,12.18,3.301264058
12.19,3.305,12.19,3.172294902,12.19,3.274570265
12.2,3.304,12.2,3.339705098,12.2,3.255220956
12.21,3.312,12.21,3.481705098,12.21,3.242731521
12.22,3.294,12.22,3.548,12.22,3.245816772
12.23,3.265,12.23,3.485705098,12.23,3.235735942
12.24,3.247,12.24,3.358705098,12.24,3.256429735
12.25,3.239,12.25,3.218294902,12.25,3.302779044
12.26,3.248,12.26,3.128294902,12.26,3.367268479
12.27,3.243,12.27,3.13,12.27,3.432183228
12.28,3.266,12.28,3.240294902,12.28,3.490264058
12.29,3.311,12.29,3.390294902,12.29,3.492570265
12.3,3.371,12.3,3.539705098,12.3,3.455220956
12.31,3.43,12.31,3.596705098,12.31,3.357731521
12.32,3.483,12.32,3.583,12.32,3.280816772
12.33,3.483,12.33,3.488705098,12.33,3.238735942
12.34,3.447,12.34,3.311705098,12.34,3.209429735
12.35,3.354,12.35,3.117294902,12.35,3.201779044
12.36,3.283,12.36,2.975294902,12.36,3.214268479
12.37,3.246,12.37,2.944,12.37,3.246183228
12.38,3.219,12.38,3.023294902,12.38,3.273264058
12.39,3.21,12.39,3.168294902,12.39,3.270570265
12.4,3.218,12.4,3.361705098,12.4,3.277220956
12.41,3.244,12.41,3.521705098,12.41,3.282731521
12.42,3.266,12.42,3.599,12.42,3.296816772
12.43,3.261,12.43,3.526705098,12.43,3.276735942
12.44,3.269,12.44,3.369705098,12.44,3.267429735
12.45,3.279,12.45,3.192294902,12.45,3.276779044
12.46,3.299,12.46,3.039294902,12.46,3.278268479
12.47,3.284,12.47,2.99,12.47,3.292183228
12.48,3.277,12.48,3.065294902,12.48,3.315264058
12.49,3.285,12.49,3.208294902,12.49,3.310570265
12.5,3.282,12.5,3.392705098,12.5,3.308220956
12.51,3.29,12.51,3.536705098,12.51,3.297731521
12.52,3.308,12.52,3.598,12.52,3.295816772
12.53,3.301,12.53,3.531705098,12.53,3.281735942
12.54,3.3,12.54,3.374705098,12.54,3.272429735
12.55,3.294,12.55,3.195294902,12.55,3.279779044
12.56,3.298,12.56,3.046294902,12.56,3.285268479
12.57,3.289,12.57,2.983,12.57,3.285183228
12.58,3.282,12.58,3.033294902,12.58,3.283264058
12.59,3.288,12.59,3.164294902,12.59,3.266570265
12.6,3.289,12.6,3.322705098,12.6,3.238220956
12.61,3.283,12.61,3.487705098,12.61,3.248731521
12.62,3.276,12.62,3.615,12.62,3.312816772
12.63,3.257,12.63,3.598705098,12.63,3.348735942
12.64,3.23,12.64,3.471705098,12.64,3.369429735
12.65,3.245,12.65,3.289294902,12.65,3.373779044
12.66,3.315,12.66,3.081294902,12.66,3.320268479
12.67,3.356,12.67,2.999,12.67,3.301183228
12.68,3.379,12.68,3.035294902,12.68,3.285264058
12.69,3.382,12.69,3.184294902,12.69,3.286570265
12.7,3.324,12.7,3.362705098,12.7,3.278220956
12.71,3.299,12.71,3.506705098,12.71,3.267731521
12.72,3.278,12.72,3.568,12.72,3.265816772
12.73,3.277,12.73,3.492705098,12.73,3.242735942
12.74,3.27,12.74,3.167705098,12.74,3.065429735
12.75,3.264,12.75,2.716294902,12.75,2.800779044
12.76,3.268,12.76,2.676294902,12.76,2.915268479
12.77,3.25,12.77,3.941,12.77,4.243183228
12.78,3.075,12.78,4.081294902,12.78,4.331264058
12.79,2.809,12.79,3.171294902,12.79,3.273570265
12.8,2.919,12.8,2.820705098,12.8,2.736220956
12.81,4.241,12.81,3.161705098,12.81,2.922731521
12.82,4.324,12.82,3.485,12.82,3.182816772
12.83,3.264,12.83,3.484705098,12.83,3.234735942
12.84,2.728,12.84,3.356705098,12.84,3.254429735
12.85,2.919,12.85,3.174294902,12.85,3.258779044
12.86,3.185,12.86,3.031294902,12.86,3.270268479
12.87,3.242,12.87,2.989,12.87,3.291183228
12.88,3.264,12.88,3.056294902,12.88,3.306264058
12.89,3.267,12.89,3.203294902,12.89,3.305570265
12.9,3.274,12.9,3.362705098,12.9,3.278220956
12.91,3.289,12.91,3.503705098,12.91,3.264731521
12.92,3.299,12.92,3.557,12.92,3.254816772
12.93,3.296,12.93,3.480705098,12.93,3.230735942
12.94,3.27,12.94,3.329705098,12.94,3.227429735
12.95,3.261,12.95,3.153294902,12.95,3.237779044
12.96,3.257,12.96,3.019294902,12.96,3.258268479
12.97,3.238,12.97,3,12.97,3.302183228
12.98,3.237,12.98,3.105294902,12.98,3.355264058
12.99,3.246,12.99,3.348294902,12.99,3.450570265
13,3.262,13,3.608705098,13,3.524220956
13.01,3.3,13.01,3.765705098,13.01,3.526731521
13.02,3.348,13.02,3.766,13.02,3.463816772
13.03,3.441,13.03,3.608705098,13.03,3.358735942
13.04,3.516,13.04,3.381705098,13.04,3.279429735
13.05,3.523,13.05,3.133294902,13.05,3.217779044
13.06,3.466,13.06,2.957294902,13.06,3.196268479
13.07,3.366,13.07,2.92,13.07,3.222183228
13.08,3.289,13.08,2.982294902,13.08,3.232264058
13.09,3.226,13.09,3.144294902,13.09,3.246570265
13.1,3.2,13.1,3.340705098,13.1,3.256220956
13.11,3.22,13.11,3.503705098,13.11,3.264731521
13.12,3.225,13.12,3.569,13.12,3.266816772
13.13,3.237,13.13,3.514705098,13.13,3.264735942
13.14,3.248,13.14,3.381705098,13.14,3.279429735
13.15,3.261,13.15,3.197294902,13.15,3.281779044
13.16,3.269,13.16,3.053294902,13.16,3.292268479
13.17,3.272,13.17,3.005,13.17,3.307183228
13.18,3.289,13.18,3.050294902,13.18,3.300264058
13.19,3.29,13.19,3.199294902,13.19,3.301570265
13.2,3.296,13.2,3.378705098,13.2,3.294220956
13.21,3.305,13.21,3.519705098,13.21,3.280731521
13.22,3.293,13.22,3.589,13.22,3.286816772
13.23,3.292,13.23,3.551705098,13.23,3.301735942
13.24,3.286,13.24,3.402705098,13.24,3.300429735
13.25,3.277,13.25,3.198294902,13.25,3.282779044
13.26,3.289,13.26,3.053294902,13.26,3.292268479
13.27,3.309,13.27,2.998,13.27,3.300183228
13.28,3.31,13.28,3.039294902,13.28,3.289264058
13.29,3.291,13.29,3.193294902,13.29,3.295570265
13.3,3.296,13.3,3.358705098,13.3,3.274220956
13.31,3.298,13.31,3.507705098,13.31,3.268731521
13.32,3.282,13.32,3.575,13.32,3.272816772
13.33,3.286,13.33,3.470705098,13.33,3.220735942
13.34,3.266,13.34,3.317705098,13.34,3.215429735
13.35,3.265,13.35,3.198294902,13.35,3.282779044
13.36,3.275,13.36,3.118294902,13.36,3.357268479
13.37,3.228,13.37,3.098,13.37,3.400183228
13.38,3.225,13.38,3.137294902,13.38,3.387264058
13.39,3.291,13.39,3.226294902,13.39,3.328570265
13.4,3.361,13.4,3.392705098,13.4,3.308220956
13.41,3.398,13.41,3.538705098,13.41,3.299731521
13.42,3.38,13.42,3.588,13.42,3.285816772
13.43,3.319,13.43,3.512705098,13.43,3.262735942
13.44,3.3,13.44,3.357705098,13.44,3.255429735
13.45,3.296,13.45,3.179294902,13.45,3.263779044
13.46,3.288,13.46,3.020294902,13.46,3.259268479
13.47,3.27,13.47,2.977,13.47,3.279183228
13.48,3.265,13.48,2.935294902,13.48,3.185264058
13.49,3.272,13.49,2.854294902,13.49,2.956570265
13.5,3.263,13.5,2.780705098,13.5,2.696220956
13.51,3.277,13.51,3.773705098,13.51,3.534731521
13.52,3.178,13.52,4.758,13.52,4.455816772
13.53,2.947,13.53,4.149705098,13.53,3.899735942
13.54,2.688,13.54,2.956705098,13.54,2.854429735
13.55,3.531,13.55,2.648294902,13.55,2.732779044
13.56,4.458,13.56,2.797294902,13.56,3.036268479
13.57,3.907,13.57,2.915,13.57,3.217183228
13.58,2.864,13.58,2.992294902,13.58,3.242264058
13.59,2.741,13.59,3.166294902,13.59,3.268570265
13.6,3.04,13.6,3.367705098,13.6,3.283220956
13.61,3.215,13.61,3.527705098,13.61,3.288731521
13.62,3.235,13.62,3.582,13.62,3.279816772
13.63,3.259,13.63,3.533705098,13.63,3.283735942
13.64,3.275,13.64,3.398705098,13.64,3.296429735
13.65,3.285,13.65,3.194294902,13.65,3.278779044
13.66,3.282,13.66,3.009294902,13.66,3.248268479
13.67,3.291,13.67,2.946,13.67,3.248183228
13.68,3.306,13.68,2.972294902,13.68,3.222264058
13.69,3.287,13.69,3.121294902,13.69,3.223570265
13.7,3.252,13.7,3.356705098,13.7,3.272220956
13.71,3.246,13.71,3.528705098,13.71,3.289731521
13.72,3.215,13.72,3.614,13.72,3.311816772
13.73,3.214,13.73,3.621705098,13.73,3.371735942
13.74,3.264,13.74,3.576705098,13.74,3.474429735
13.75,3.286,13.75,3.432294902,13.75,3.516779044
13.76,3.314,13.76,3.247294902,13.76,3.486268479
13.77,3.379,13.77,3.128,13.77,3.430183228
13.78,3.484,13.78,3.101294902,13.78,3.351264058
13.79,3.525,13.79,3.181294902,13.79,3.283570265
13.8,3.49,13.8,3.310705098,13.8,3.226220956
13.81,3.428,13.81,3.439705098,13.81,3.200731521
13.82,3.344,13.82,3.513,13.82,3.210816772
13.83,3.274,13.83,3.468705098,13.83,3.218735942
13.84,3.218,13.84,3.351705098,13.84,3.249429735
13.85,3.197,13.85,3.170294902,13.85,3.254779044
13.86,3.213,13.86,3.031294902,13.86,3.270268479
13.87,3.226,13.87,2.987,13.87,3.289183228
13.88,3.259,13.88,3.028294902,13.88,3.278264058
13.89,3.263,13.89,3.177294902,13.89,3.279570265
13.9,3.274,13.9,3.372705098,13.9,3.288220956
13.91,3.287,13.91,3.519705098,13.91,3.280731521
13.92,3.271,13.92,3.591,13.92,3.288816772
13.93,3.27,13.93,3.539705098,13.93,3.289735942
13.94,3.28,13.94,3.399705098,13.94,3.297429735
13.95,3.277,13.95,3.192294902,13.95,3.276779044
13.96,3.291,13.96,3.045294902,13.96,3.284268479
13.97,3.297,13.97,3.012,13.97,3.314183228
13.98,3.307,13.98,3.046294902,13.98,3.296264058
13.99,3.285,13.99,3.186294902,13.99,3.288570265
14,3.288,14,3.384705098,14,3.300220956
14.01,3.312,14.01,3.546705098,14.01,3.307731521
14.02,3.289,14.02,3.595,14.02,3.292816772
14.03,3.279,14.03,3.533705098,14.03,3.283735942
14.04,3.292,14.04,3.401705098,14.04,3.299429735
14.05,3.304,14.05,3.208294902,14.05,3.292779044
14.06,3.295,14.06,3.028294902,14.06,3.267268479
14.07,3.291,14.07,2.982,14.07,3.284183228
14.08,3.309,14.08,3.048294902,14.08,3.298264058
14.09,3.301,14.09,3.182294902,14.09,3.284570265
14.1,3.271,14.1,3.304705098,14.1,3.220220956
14.11,3.282,14.11,3.439705098,14.11,3.200731521
14.12,3.291,14.12,3.563,14.12,3.260816772
14.13,3.275,14.13,3.588705098,14.13,3.338735942
14.14,3.212,14.14,3.489705098,14.14,3.387429735
14.15,3.197,14.15,3.301294902,14.15,3.385779044
14.16,3.263,14.16,3.106294902,14.16,3.345268479
14.17,3.346,14.17,3.004,14.17,3.306183228
14.18,3.397,14.18,3.039294902,14.18,3.289264058
14.19,3.394,14.19,3.190294902,14.19,3.292570265
14.2,3.349,14.2,3.383705098,14.2,3.299220956
14.21,3.304,14.21,3.512705098,14.21,3.273731521
14.22,3.282,14.22,3.568,14.22,3.265816772
14.23,3.283,14.23,3.506705098,14.23,3.256735942
14.24,3.291,14.24,3.380705098,14.24,3.278429735
14.25,3.27,14.25,3.106294902,14.25,3.190779044
14.26,3.268,14.26,2.727294902,14.26,2.966268479
14.27,3.264,14.27,2.428,14.27,2.730183228
14.28,3.288,14.28,3.063294902,14.28,3.313264058
14.29,3.199,14.29,4.365294902,14.29,4.467570265
14.3,2.97,14.3,4.198705098,14.3,4.114220956
14.31,2.728,14.31,3.205705098,14.31,2.966731521
14.32,3.306,14.32,2.973,14.32,2.670816772
14.33,4.458,14.33,3.210705098,14.33,2.960735942
14.34,4.106,14.34,3.291705098,14.34,3.189429735
14.35,2.963,14.35,3.159294902,14.35,3.243779044
14.36,2.673,14.36,3.010294902,14.36,3.249268479
14.37,2.968,14.37,2.98,14.37,3.282183228
14.38,3.199,14.38,3.060294902,14.38,3.310264058
14.39,3.252,14.39,3.204294902,14.39,3.306570265
14.4,3.253,14.4,3.390705098,14.4,3.306220956
14.41,3.28,14.41,3.514705098,14.41,3.275731521
14.42,3.303,14.42,3.551,14.42,3.248816772
14.43,3.297,14.43,3.507705098,14.43,3.257735942
14.44,3.298,14.44,3.351705098,14.44,3.249429735
14.45,3.272,14.45,3.151294902,14.45,3.235779044
14.46,3.251,14.46,2.995294902,14.46,3.234268479
14.47,3.265,14.47,2.951,14.47,3.253183228
14.48,3.259,14.48,3.035294902,14.48,3.285264058
14.49,3.244,14.49,3.225294902,14.49,3.327570265
14.5,3.238,14.5,3.460705098,14.5,3.376220956
14.51,3.251,14.51,3.681705098,14.51,3.442731521
14.52,3.278,14.52,3.814,14.52,3.511816772
14.53,3.318,14.53,3.741705098,14.53,3.491735942
14.54,3.368,14.54,3.535705098,14.54,3.433429735
14.55,3.439,14.55,3.268294902,14.55,3.352779044
14.56,3.514,14.56,3.043294902,14.56,3.282268479
14.57,3.499,14.57,2.938,14.57,3.240183228
14.58,3.443,14.58,2.962294902,14.58,3.212264058
14.59,3.361,14.59,3.113294902,14.59,3.215570265
14.6,3.286,14.6,3.326705098,14.6,3.242220956
14.61,3.238,14.61,3.496705098,14.61,3.257731521
14.62,3.205,14.62,3.55,14.62,3.247816772
14.63,3.206,14.63,3.506705098,14.63,3.256735942
14.64,3.234,14.64,3.369705098,14.64,3.267429735
14.65,3.254,14.65,3.186294902,14.65,3.270779044
14.66,3.25,14.66,3.037294902,14.66,3.276268479
14.67,3.264,14.67,2.984,14.67,3.286183228
14.68,3.277,14.68,3.040294902,14.68,3.290264058
14.69,3.279,14.69,3.186294902,14.69,3.288570265
14.7,3.28,14.7,3.372705098,14.7,3.288220956
14.71,3.284,14.71,3.537705098,14.71,3.298731521
14.72,3.283,14.72,3.601,14.72,3.298816772
14.73,3.279,14.73,3.532705098,14.73,3.282735942
14.74,3.28,14.74,3.392705098,14.74,3.290429735
14.75,3.295,14.75,3.212294902,14.75,3.296779044
14.76,3.301,14.76,3.055294902,14.76,3.294268479
14.77,3.29,14.77,2.999,14.77,3.301183228
14.78,3.3,14.78,3.047294902,14.78,3.297264058
14.79,3.305,14.79,3.204294902,14.79,3.306570265
14.8,3.298,14.8,3.389705098,14.8,3.305220956
14.81,3.299,14.81,3.540705098,14.81,3.301731521
14.82,3.29,14.82,3.597,14.82,3.294816772
14.83,3.297,14.83,3.526705098,14.83,3.276735942
14.84,3.297,14.84,3.373705098,14.84,3.271429735
14.85,3.298,14.85,3.190294902,14.85,3.274779044
14.86,3.297,14.86,3.036294902,14.86,3.275268479
14.87,3.284,14.87,2.984,14.87,3.286183228
14.88,3.281,14.88,3.031294902,14.88,3.281264058
14.89,3.283,14.89,3.145294902,14.89,3.247570265
14.9,3.279,14.9,3.308705098,14.9,3.224220956
14.91,3.284,14.91,3.486705098,14.91,3.247731521
14.92,3.274,14.92,3.628,14.92,3.325816772
14.93,3.238,14.93,3.612705098,14.93,3.362735942
14.94,3.216,14.94,3.484705098,14.94,3.382429735
14.95,3.244,14.95,3.276294902,14.95,3.360779044
14.96,3.328,14.96,3.064294902,14.96,3.303268479
14.97,3.37,14.97,3.008,14.97,3.310183228
14.98,3.392,14.98,3.048294902,14.98,3.298264058
14.99,3.369,14.99,3.175294902,14.99,3.277570265
15,3.307,15,3.359705098,15,3.275220956
15.01,3.308,15.01,3.514705098,15.01,3.275731521
15.02,3.291,15.02,3.591,15.02,3.288816772
15.03,3.268,15.03,3.506705098,15.03,3.256735942
15.04,3.267,15.04,3.311705098,15.04,3.209429735
15.05,3.272,15.05,2.950294902,15.05,3.034779044
15.06,3.291,15.06,2.527294902,15.06,2.766268479
15.07,3.264,15.07,2.846,15.07,3.148183228
15.08,3.219,15.08,4.169294902,15.08,4.419264058
15.09,3.043,15.09,4.197294902,15.09,4.299570265
15.1,2.77,15.1,3.196705098,15.1,3.112220956
15.11,3.146,15.11,2.859705098,15.11,2.620731521
15.12,4.412,15.12,3.187,15.12,2.884816772
15.13,4.29,15.13,3.405705098,15.13,3.155735942
15.14,3.104,15.14,3.342705098,15.14,3.240429735
15.15,2.617,15.15,3.158294902,15.15,3.242779044
15.16,2.887,15.16,3.027294902,15.16,3.266268479
15.17,3.163,15.17,3.003,15.17,3.305183228
15.18,3.25,15.18,3.044294902,15.18,3.294264058
15.19,3.251,15.19,3.195294902,15.19,3.297570265
15.2,3.27,15.2,3.401705098,15.2,3.317220956
15.21,3.303,15.21,3.543705098,15.21,3.304731521
15.22,3.287,15.22,3.555,15.22,3.252816772
15.23,3.288,15.23,3.484705098,15.23,3.234735942
15.24,3.309,15.24,3.335705098,15.24,3.233429735
15.25,3.301,15.25,3.140294902,15.25,3.224779044
15.26,3.255,15.26,2.987294902,15.26,3.226268479
15.27,3.242,15.27,2.962,15.27,3.264183228
15.28,3.243,15.28,3.082294902,15.28,3.332264058
15.29,3.233,15.29,3.288294902,15.29,3.390570265
15.3,3.23,15.3,3.545705098,15.3,3.461220956
15.31,3.262,15.31,3.735705098,15.31,3.496731521
15.32,3.325,15.32,3.807,15.32,3.504816772
15.33,3.381,15.33,3.666705098,15.33,3.416735942
15.34,3.453,15.34,3.450705098,15.34,3.348429735
15.35,3.493,15.35,3.208294902,15.35,3.292779044
15.36,3.507,15.36,3.010294902,15.36,3.249268479
15.37,3.424,15.37,2.923,15.37,3.225183228
15.38,3.358,15.38,2.953294902,15.38,3.203264058
15.39,3.301,15.39,3.132294902,15.39,3.234570265
15.4,3.253,15.4,3.338705098,15.4,3.254220956
15.41,3.223,15.41,3.486705098,15.41,3.247731521
15.42,3.196,15.42,3.573,15.42,3.270816772
15.43,3.225,15.43,3.509705098,15.43,3.259735942
15.44,3.246,15.44,3.380705098,15.44,3.278429735
15.45,3.244,15.45,3.189294902,15.45,3.273779044
15.46,3.273,15.46,3.025294902,15.46,3.264268479
15.47,3.267,15.47,2.984,15.47,3.286183228
15.48,3.288,15.48,3.044294902,15.48,3.294264058
15.49,3.282,15.49,3.205294902,15.49,3.307570265
15.5,3.268,15.5,3.392705098,15.5,3.308220956
15.51,3.284,15.51,3.532705098,15.51,3.293731521
15.52,3.287,15.52,3.596,15.52,3.293816772
15.53,3.298,15.53,3.530705098,15.53,3.280735942
15.54,3.3,15.54,3.387705098,15.54,3.285429735
15.55,3.29,15.55,3.198294902,15.55,3.282779044
15.56,3.296,15.56,3.045294902,15.56,3.284268479
15.57,3.288,15.57,3.017,15.57,3.319183228
15.58,3.295,15.58,3.070294902,15.58,3.320264058
15.59,3.291,15.59,3.195294902,15.59,3.297570265
15.6,3.288,15.6,3.387705098,15.6,3.303220956
15.61,3.317,15.61,3.532705098,15.61,3.293731521
15.62,3.313,15.62,3.604,15.62,3.301816772
15.63,3.288,15.63,3.530705098,15.63,3.280735942
15.64,3.295,15.64,3.352705098,15.64,3.250429735
15.65,3.29,15.65,3.188294902,15.65,3.272779044
15.66,3.304,15.66,2.968294902,15.66,3.207268479
15.67,3.288,15.67,2.927,15.67,3.229183228
15.68,3.26,15.68,3.036294902,15.68,3.286264058
15.69,3.281,15.69,3.243294902,15.69,3.345570265
15.7,3.211,15.7,3.462705098,15.7,3.378220956
15.71,3.227,15.71,3.628705098,15.71,3.389731521
15.72,3.279,15.72,3.655,15.72,3.352816772
15.73,3.336,15.73,3.534705098,15.73,3.284735942
15.74,3.37,15.74,3.361705098,15.74,3.259429735
15.75,3.386,15.75,3.187294902,15.75,3.271779044
15.76,3.355,15.76,3.036294902,15.76,3.275268479
15.77,3.292,15.77,2.967,15.77,3.269183228
15.78,3.269,15.78,3.022294902,15.78,3.272264058
15.79,3.28,15.79,3.182294902,15.79,3.284570265
15.8,3.279,15.8,3.375705098,15.8,3.291220956
15.81,3.267,15.81,3.423705098,15.81,3.184731521
15.82,3.265,15.82,3.282,15.82,2.979816772
15.83,3.275,15.83,3.013705098,15.83,2.763735942
15.84,3.283,15.84,3.624705098,15.84,3.522429735
15.85,3.181,15.85,4.365294902,15.85,4.449779044
15.86,2.982,15.86,3.664294902,15.86,3.903268479
15.87,2.771,15.87,2.559,15.87,2.861183228
15.88,3.532,15.88,2.467294902,15.88,2.717264058
15.89,4.458,15.89,2.914294902,15.89,3.016570265
15.9,3.907,15.9,3.278705098,15.9,3.194220956
15.91,2.859,15.91,3.466705098,15.91,3.227731521
15.92,2.71,15.92,3.566,15.92,3.263816772
15.93,3.007,15.93,3.553705098,15.93,3.303735942
15.94,3.186,15.94,3.389705098,15.94,3.287429735
15.95,3.224,15.95,3.191294902,15.95,3.275779044
15.96,3.266,15.96,3.036294902,15.96,3.275268479
15.97,3.311,15.97,3.009,15.97,3.311183228
15.98,3.297,15.98,3.058294902,15.98,3.308264058
15.99,3.284,15.99,3.166294902,15.99,3.268570265
16,3.279,16,3.343705098,16,3.259220956
16.01,3.309,16.01,3.480705098,16.01,3.241731521
16.02,3.301,16.02,3.541,16.02,3.238816772
16.03,3.259,16.03,3.495705098,16.03,3.245735942
16.04,3.251,16.04,3.368705098,16.04,3.266429735
16.05,3.238,16.05,3.230294902,16.05,3.314779044
16.06,3.241,16.06,3.150294902,16.06,3.389268479
16.07,3.253,16.07,3.189,16.07,3.491183228
16.08,3.276,16.08,3.260294902,16.08,3.510264058
16.09,3.323,16.09,3.365294902,16.09,3.467570265
16.1,3.393,16.1,3.493705098,16.1,3.409220956
16.11,3.489,16.11,3.574705098,16.11,3.335731521
16.12,3.503,16.12,3.576,16.12,3.273816772
16.13,3.458,16.13,3.454705098,16.13,3.204735942
16.14,3.401,16.14,3.296705098,16.14,3.194429735
16.15,3.332,16.15,3.126294902,16.15,3.210779044
16.16,3.276,16.16,2.988294902,16.16,3.227268479
16.17,3.212,16.17,2.966,16.17,3.268183228
16.18,3.204,16.18,3.037294902,16.18,3.287264058
16.19,3.219,16.19,3.175294902,16.19,3.277570265
16.2,3.231,16.2,3.365705098,16.2,3.281220956
16.21,3.266,16.21,3.514705098,16.21,3.275731521
16.22,3.28,16.22,3.586,16.22,3.283816772
16.23,3.268,16.23,3.520705098,16.23,3.270735942
16.24,3.273,16.24,3.370705098,16.24,3.268429735
16.25,3.272,16.25,3.211294902,16.25,3.295779044
16.26,3.286,16.26,3.055294902,16.26,3.294268479
16.27,3.278,16.27,3.001,16.27,3.303183228
16.28,3.278,16.28,3.053294902,16.28,3.303264058
16.29,3.304,16.29,3.199294902,16.29,3.301570265
16.3,3.298,16.3,3.385705098,16.3,3.301220956
16.31,3.301,16.31,3.517705098,16.31,3.278731521
16.32,3.296,16.32,3.582,16.32,3.279816772
16.33,3.292,16.33,3.555705098,16.33,3.305735942
16.34,3.293,16.34,3.406705098,16.34,3.304429735
16.35,3.275,16.35,3.210294902,16.35,3.294779044
16.36,3.282,16.36,3.044294902,16.36,3.283268479
16.37,3.313,16.37,2.984,16.37,3.286183228
16.38,3.314,16.38,3.035294902,16.38,3.285264058
16.39,3.303,16.39,3.178294902,16.39,3.280570265
16.4,3.287,16.4,3.339705098,16.4,3.255220956
16.41,3.284,16.41,3.460705098,16.41,3.221731521
16.42,3.278,16.42,3.541,16.42,3.238816772
16.43,3.271,16.43,3.555705098,16.43,3.305735942
16.44,3.247,16.44,3.446705098,16.44,3.344429735
16.45,3.218,16.45,3.294294902,16.45,3.378779044
16.46,3.241,16.46,3.133294902,16.46,3.372268479
16.47,3.313,16.47,3.038,16.47,3.340183228
16.48,3.354,16.48,3.042294902,16.48,3.292264058
16.49,3.387,16.49,3.178294902,16.49,3.280570265
16.5,3.376,16.5,3.375705098,16.5,3.291220956
16.51,3.338,16.51,3.499705098,16.51,3.260731521
16.52,3.285,16.52,3.586,16.52,3.283816772
16.53,3.271,16.53,3.534705098,16.53,3.284735942
16.54,3.283,16.54,3.375705098,16.54,3.273429735
16.55,3.257,16.55,3.173294902,16.55,3.257779044
16.56,3.286,16.56,2.864294902,16.56,3.103268479
16.57,3.292,16.57,2.57,16.57,2.872183228
16.58,3.283,16.58,2.617294902,16.58,2.867264058
16.59,3.266,16.59,3.922294902,16.59,4.024570265
16.6,3.107,16.6,4.541705098,16.6,4.457220956
16.61,2.87,16.61,3.690705098,16.61,3.451731521
16.62,2.86,16.62,3.037,16.62,2.734816772
16.63,4.015,16.63,3.075705098,16.63,2.825735942
16.64,4.449,16.64,3.190705098,16.64,3.088429735
16.65,3.448,16.65,3.121294902,16.65,3.205779044
16.66,2.737,16.66,2.999294902,16.66,3.238268479
16.67,2.833,16.67,2.988,16.67,3.290183228
16.68,3.098,16.68,3.067294902,16.68,3.317264058
16.69,3.214,16.69,3.212294902,16.69,3.314570265
16.7,3.242,16.7,3.398705098,16.7,3.314220956
16.71,3.288,16.71,3.533705098,16.71,3.294731521
16.72,3.31,16.72,3.577,16.72,3.274816772
16.73,3.305,16.73,3.514705098,16.73,3.264735942
16.74,3.306,16.74,3.345705098,16.74,3.243429735
16.75,3.291,16.75,3.161294902,16.75,3.245779044
16.76,3.277,16.76,2.984294902,16.76,3.223268479
16.77,3.272,16.77,2.933,16.77,3.235183228
16.78,3.253,16.78,3.022294902,16.78,3.272264058
16.79,3.254,16.79,3.223294902,16.79,3.325570265
16.8,3.227,16.8,3.466705098,16.8,3.382220956
16.81,3.233,16.81,3.655705098,16.81,3.416731521
16.82,3.265,16.82,3.789,16.82,3.486816772
16.83,3.316,16.83,3.740705098,16.83,3.490735942
16.84,3.374,16.84,3.524705098,16.84,3.422429735
16.85,3.413,16.85,3.259294902,16.85,3.343779044
16.86,3.489,16.86,3.058294902,16.86,3.297268479
16.87,3.498,16.87,2.958,16.87,3.260183228
16.88,3.432,16.88,2.971294902,16.88,3.221264058
16.89,3.352,16.89,3.108294902,16.89,3.210570265
16.9,3.301,16.9,3.324705098,16.9,3.240220956
16.91,3.258,16.91,3.502705098,16.91,3.263731521
16.92,3.214,16.92,3.564,16.92,3.261816772
16.93,3.201,16.93,3.493705098,16.93,3.243735942
16.94,3.232,16.94,3.344705098,16.94,3.242429735
16.95,3.26,16.95,3.184294902,16.95,3.268779044
16.96,3.264,16.96,3.043294902,16.96,3.282268479
16.97,3.251,16.97,2.988,16.97,3.290183228
16.98,3.252,16.98,3.051294902,16.98,3.301264058
16.99,3.277,16.99,3.197294902,16.99,3.299570265
17,3.286,17,3.389705098,17,3.305220956
17.01,3.288,17.01,3.529705098,17.01,3.290731521
17.02,3.294,17.02,3.594,17.02,3.291816772
17.03,3.29,17.03,3.532705098,17.03,3.282735942
17.04,3.297,17.04,3.379705098,17.04,3.277429735
17.05,3.287,17.05,3.197294902,17.05,3.281779044
17.06,3.294,17.06,3.066294902,17.06,3.305268479
17.07,3.29,17.07,3.005,17.07,3.307183228
17.08,3.287,17.08,3.050294902,17.08,3.300264058
17.09,3.29,17.09,3.193294902,17.09,3.295570265
17.1,3.309,17.1,3.379705098,17.1,3.295220956
17.11,3.305,17.11,3.537705098,17.11,3.298731521
17.12,3.293,17.12,3.6,17.12,3.297816772
17.13,3.286,17.13,3.529705098,17.13,3.279735942
17.14,3.287,17.14,3.368705098,17.14,3.266429735
17.15,3.295,17.15,3.186294902,17.15,3.270779044
17.16,3.3,17.16,2.967294902,17.16,3.206268479
17.17,3.287,17.17,2.92,17.17,3.222183228
17.18,3.276,17.18,3.031294902,17.18,3.281264058
17.19,3.279,17.19,3.255294902,17.19,3.357570265
17.2,3.21,17.2,3.477705098,17.2,3.393220956
17.21,3.22,17.21,3.624705098,17.21,3.385731521
17.22,3.274,17.22,3.639,17.22,3.336816772
17.23,3.348,17.23,3.546705098,17.23,3.296735942
17.24,3.385,17.24,3.369705098,17.24,3.267429735
17.25,3.382,17.25,3.202294902,17.25,3.286779044
17.26,3.339,17.26,3.045294902,17.26,3.284268479
17.27,3.304,17.27,2.954,17.27,3.256183228
17.28,3.277,17.28,3.015294902,17.28,3.265264058
17.29,3.295,17.29,3.183294902,17.29,3.285570265
17.3,3.288,17.3,3.373705098,17.3,3.289220956
17.31,3.254,17.31,3.409705098,17.31,3.170731521
17.32,3.258,17.32,3.259,17.32,2.956816772
17.33,3.276,17.33,2.971705098,17.33,2.721735942
17.34,3.281,17.34,3.720705098,17.34,3.618429735
17.35,3.167,17.35,4.365294902,17.35,4.449779044
17.36,2.959,17.36,3.511294902,17.36,3.750268479
17.37,2.729,17.37,2.542,17.37,2.844183228
17.38,3.628,17.38,2.567294902,17.38,2.817264058
17.39,4.458,17.39,2.982294902,17.39,3.084570265
17.4,3.754,17.4,3.312705098,17.4,3.228220956
17.41,2.842,17.41,3.498705098,17.41,3.259731521
17.42,2.81,17.42,3.567,17.42,3.264816772
17.43,3.075,17.43,3.514705098,17.43,3.264735942
17.44,3.22,17.44,3.372705098,17.44,3.270429735
17.45,3.256,17.45,3.214294902,17.45,3.298779044
17.46,3.267,17.46,3.055294902,17.46,3.294268479
17.47,3.272,17.47,2.97,17.47,3.272183228
17.48,3.28,17.48,3.018294902,17.48,3.268264058
17.49,3.307,17.49,3.174294902,17.49,3.276570265
17.5,3.298,17.5,3.358705098,17.5,3.274220956
17.51,3.27,17.51,3.475705098,17.51,3.236731521
17.52,3.261,17.52,3.53,17.52,3.227816772
17.53,3.267,17.53,3.494705098,17.53,3.244735942
17.54,3.266,17.54,3.369705098,17.54,3.267429735
17.55,3.233,17.55,3.233294902,17.55,3.317779044
17.56,3.23,17.56,3.157294902,17.56,3.396268479
17.57,3.252,17.57,3.175,17.57,3.477183228
17.58,3.277,17.58,3.275294902,17.58,3.525264058
17.59,3.326,17.59,3.397294902,17.59,3.499570265
17.6,3.4,17.6,3.510705098,17.6,3.426220956
17.61,3.475,17.61,3.564705098,17.61,3.325731521
17.62,3.518,17.62,3.561,17.62,3.258816772
17.63,3.49,17.63,3.469705098,17.63,3.219735942
17.64,3.418,17.64,3.287705098,17.64,3.185429735
17.65,3.322,17.65,3.129294902,17.65,3.213779044
17.66,3.261,17.66,2.996294902,17.66,3.235268479
17.67,3.227,17.67,2.937,17.67,3.239183228
17.68,3.195,17.68,2.998294902,17.68,3.248264058
17.69,3.222,17.69,3.156294902,17.69,3.258570265
17.7,3.239,17.7,3.380705098,17.7,3.296220956
17.71,3.237,17.71,3.523705098,17.71,3.284731521
17.72,3.241,17.72,3.582,17.72,3.279816772
17.73,3.249,17.73,3.529705098,17.73,3.279735942
17.74,3.288,17.74,3.378705098,17.74,3.276429735
17.75,3.281,17.75,3.199294902,17.75,3.283779044
17.76,3.282,17.76,3.048294902,17.76,3.287268479
17.77,3.287,17.77,3.005,17.77,3.307183228
17.78,3.286,17.78,3.067294902,17.78,3.317264058
17.79,3.292,17.79,3.199294902,17.79,3.301570265
17.8,3.291,17.8,3.383705098,17.8,3.299220956
17.81,3.305,17.81,3.547705098,17.81,3.308731521
17.82,3.31,17.82,3.597,17.82,3.294816772
17.83,3.292,17.83,3.525705098,17.83,3.275735942
17.84,3.291,17.84,3.382705098,17.84,3.280429735
17.85,3.305,17.85,3.202294902,17.85,3.286779044
17.86,3.297,17.86,3.046294902,17.86,3.285268479
17.87,3.283,17.87,2.987,17.87,3.289183228
17.88,3.29,17.88,3.055294902,17.88,3.305264058
17.89,3.295,17.89,3.192294902,17.89,3.294570265
17.9,3.289,17.9,3.377705098,17.9,3.293220956
17.91,3.287,17.91,3.512705098,17.91,3.273731521
17.92,3.298,17.92,3.596,17.92,3.293816772
17.93,3.285,17.93,3.483705098,17.93,3.233735942
17.94,3.285,17.94,3.285705098,17.94,3.183429735
17.95,3.27,17.95,3.162294902,17.95,3.246779044
17.96,3.296,17.96,3.087294902,17.96,3.326268479
17.97,3.241,17.97,3.059,17.97,3.361183228
17.98,3.193,17.98,3.156294902,17.98,3.406264058
17.99,3.255,17.99,3.275294902,17.99,3.377570265
18,3.33,18,3.407705098,18,3.323220956
18.01,3.359,18.01,3.533705098,18.01,3.294731521
18.02,3.399,18.02,3.578,18.02,3.275816772
18.03,3.368,18.03,3.523705098,18.03,3.273735942
18.04,3.315,18.04,3.366705098,18.04,3.264429735
18.05,3.291,18.05,3.186294902,18.05,3.270779044
18.06,3.278,18.06,3.031294902,18.06,3.270268479
18.07,3.281,18.07,2.98,18.07,3.282183228
18.08,3.274,18.08,3.007294902,18.08,3.257264058
18.09,3.279,18.09,2.945294902,18.09,3.047570265
18.1,3.274,18.1,2.896705098,18.1,2.812220956
18.11,3.28,18.11,3.229705098,18.11,2.990731521
18.12,3.25,18.12,4.564,18.12,4.261816772
18.13,3.038,18.13,4.542705098,18.13,4.292735942
18.14,2.804,18.14,3.301705098,18.14,3.199429735
18.15,2.987,18.15,2.614294902,18.15,2.698779044
18.16,4.264,18.16,2.688294902,18.16,2.927268479
18.17,4.3,18.17,2.875,18.17,3.177183228
18.18,3.209,18.18,3.006294902,18.18,3.256264058
18.19,2.707,18.19,3.153294902,18.19,3.255570265
18.2,2.931,18.2,3.378705098,18.2,3.294220956
18.21,3.175,18.21,3.540705098,18.21,3.301731521
18.22,3.249,18.22,3.595,18.22,3.292816772
18.23,3.246,18.23,3.548705098,18.23,3.298735942
18.24,3.286,18.24,3.382705098,18.24,3.280429735
18.25,3.298,18.25,3.183294902,18.25,3.267779044
18.26,3.295,18.26,3.008294902,18.26,3.247268479
18.27,3.306,18.27,2.939,18.27,3.241183228
18.28,3.29,18.28,2.993294902,18.28,3.243264058
18.29,3.276,18.29,3.140294902,18.29,3.242570265
18.3,3.251,18.3,3.350705098,18.3,3.266220956
18.31,3.239,18.31,3.516705098,18.31,3.277731521
18.32,3.236,18.32,3.61,18.32,3.307816772
18.33,3.233,18.33,3.599705098,18.33,3.349735942
18.34,3.258,18.34,3.493705098,18.34,3.391429735
18.35,3.274,18.35,3.394294902,18.35,3.478779044
18.36,3.31,18.36,3.262294902,18.36,3.501268479
18.37,3.357,18.37,3.147,18.37,3.449183228
18.38,3.401,18.38,3.145294902,18.38,3.395264058
18.39,3.487,18.39,3.217294902,18.39,3.319570265
18.4,3.505,18.4,3.344705098,18.4,3.260220956
18.41,3.447,18.41,3.459705098,18.41,3.220731521
18.42,3.388,18.42,3.497,18.42,3.194816772
18.43,3.31,18.43,3.474705098,18.43,3.224735942
18.44,3.252,18.44,3.343705098,18.44,3.241429735
18.45,3.217,18.45,3.170294902,18.45,3.254779044
18.46,3.197,18.46,3.013294902,18.46,3.252268479
18.47,3.232,18.47,2.964,18.47,3.266183228
18.48,3.251,18.48,3.026294902,18.48,3.276264058
18.49,3.263,18.49,3.171294902,18.49,3.273570265
18.5,3.256,18.5,3.382705098,18.5,3.298220956
18.51,3.264,18.51,3.535705098,18.51,3.296731521
18.52,3.269,18.52,3.581,18.52,3.278816772
18.53,3.264,18.53,3.537705098,18.53,3.287735942
18.54,3.29,18.54,3.383705098,18.54,3.281429735
18.55,3.293,18.55,3.207294902,18.55,3.291779044
18.56,3.281,18.56,3.056294902,18.56,3.295268479
18.57,3.295,18.57,2.99,18.57,3.292183228
18.58,3.291,18.58,3.036294902,18.58,3.286264058
18.59,3.3,18.59,3.205294902,18.59,3.307570265
18.6,3.299,18.6,3.402705098,18.6,3.318220956
18.61,3.29,18.61,3.540705098,18.61,3.301731521
18.62,3.279,18.62,3.606,18.62,3.303816772
18.63,3.298,18.63,3.551705098,18.63,3.301735942
18.64,3.31,18.64,3.372705098,18.64,3.270429735
18.65,3.298,18.65,3.184294902,18.65,3.268779044
18.66,3.306,18.66,3.041294902,18.66,3.280268479
18.67,3.309,18.67,2.981,18.67,3.283183228
18.68,3.28,18.68,3.054294902,18.68,3.304264058
18.69,3.277,18.69,3.190294902,18.69,3.292570265
18.7,3.284,18.7,3.382705098,18.7,3.298220956
18.71,3.281,18.71,3.529705098,18.71,3.290731521
18.72,3.297,18.72,3.594,18.72,3.291816772
18.73,3.283,18.73,3.495705098,18.73,3.245735942
18.74,3.29,18.74,3.290705098,18.74,3.188429735
18.75,3.287,18.75,3.145294902,18.75,3.229779044
18.76,3.294,18.76,3.071294902,18.76,3.310268479
18.77,3.253,18.77,3.055,18.77,3.357183228
18.78,3.198,18.78,3.156294902,18.78,3.406264058
18.79,3.238,18.79,3.294294902,18.79,3.396570265
18.8,3.314,18.8,3.417705098,18.8,3.333220956
18.81,3.355,18.81,3.513705098,18.81,3.274731521
18.82,3.399,18.82,3.571,18.82,3.268816772
18.83,3.387,18.83,3.514705098,18.83,3.264735942
18.84,3.325,18.84,3.365705098,18.84,3.263429735
18.85,3.271,18.85,3.197294902,18.85,3.281779044
18.86,3.271,18.86,3.036294902,18.86,3.275268479
18.87,3.272,18.87,2.979,18.87,3.281183228
18.88,3.273,18.88,3.006294902,18.88,3.256264058
18.89,3.29,18.89,2.953294902,18.89,3.055570265
18.9,3.279,18.9,2.918705098,18.9,2.834220956
18.91,3.279,18.91,3.237705098,18.91,2.998731521
18.92,3.249,18.92,4.573,18.92,4.270816772
18.93,3.046,18.93,4.562705098,18.93,4.312735942
18.94,2.826,18.94,3.308705098,18.94,3.206429735
18.95,2.995,18.95,2.589294902,18.95,2.673779044
18.96,4.273,18.96,2.656294902,18.96,2.895268479
18.97,4.32,18.97,2.86,18.97,3.162183228
18.98,3.216,18.98,3.002294902,18.98,3.252264058
18.99,2.682,18.99,3.167294902,18.99,3.269570265
19,2.899,19,3.377705098,19,3.293220956
19.01,3.16,19.01,3.543705098,19.01,3.304731521
19.02,3.245,19.02,3.595,19.02,3.292816772
19.03,3.26,19.03,3.534705098,19.03,3.284735942
19.04,3.285,19.04,3.371705098,19.04,3.269429735
19.05,3.301,19.05,3.189294902,19.05,3.273779044
19.06,3.295,19.06,3.022294902,19.06,3.261268479
19.07,3.292,19.07,2.961,19.07,3.263183228
19.08,3.279,19.08,3.013294902,19.08,3.263264058
19.09,3.282,19.09,3.112294902,19.09,3.214570265
19.1,3.265,19.1,3.324705098,19.1,3.240220956
19.11,3.261,19.11,3.525705098,19.11,3.286731521
19.12,3.256,19.12,3.615,19.12,3.312816772
19.13,3.205,19.13,3.610705098,19.13,3.360735942
19.14,3.232,19.14,3.509705098,19.14,3.407429735
19.15,3.283,19.15,3.370294902,19.15,3.454779044
19.16,3.315,19.16,3.239294902,19.16,3.478268479
19.17,3.368,19.17,3.158,19.17,3.460183228
19.18,3.417,19.18,3.153294902,19.18,3.403264058
19.19,3.463,19.19,3.211294902,19.19,3.313570265
19.2,3.482,19.2,3.321705098,19.2,3.237220956
19.21,3.458,19.21,3.460705098,19.21,3.221731521
19.22,3.396,19.22,3.526,19.22,3.223816772
19.23,3.304,19.23,3.477705098,19.23,3.227735942
19.24,3.229,19.24,3.321705098,19.24,3.219429735
19.25,3.218,19.25,3.165294902,19.25,3.249779044
19.26,3.226,19.26,3.012294902,19.26,3.251268479
19.27,3.235,19.27,2.971,19.27,3.273183228
19.28,3.229,19.28,3.043294902,19.28,3.293264058
19.29,3.258,19.29,3.179294902,19.29,3.281570265
19.3,3.255,19.3,3.380705098,19.3,3.296220956
19.31,3.271,19.31,3.540705098,19.31,3.301731521
19.32,3.286,19.32,3.592,19.32,3.289816772
19.33,3.272,19.33,3.543705098,19.33,3.293735942
19.34,3.288,19.34,3.387705098,19.34,3.285429735
19.35,3.298,19.35,3.194294902,19.35,3.278779044
19.36,3.292,19.36,3.039294902,19.36,3.278268479
19.37,3.301,19.37,2.988,19.37,3.290183228
19.38,3.295,19.38,3.056294902,19.38,3.306264058
19.39,3.287,19.39,3.196294902,19.39,3.298570265
19.4,3.282,19.4,3.386705098,19.4,3.302220956
19.41,3.288,19.41,3.535705098,19.41,3.296731521
19.42,3.299,19.42,3.595,19.42,3.292816772
19.43,3.289,19.43,3.546705098,19.43,3.296735942
19.44,3.294,19.44,3.391705098,19.44,3.289429735
19.45,3.293,19.45,3.195294902,19.45,3.279779044
19.46,3.295,19.46,3.023294902,19.46,3.262268479
19.47,3.304,19.47,2.984,19.47,3.286183228
19.48,3.299,19.48,3.063294902,19.48,3.313264058
19.49,3.288,19.49,3.188294902,19.49,3.290570265
19.5,3.266,19.5,3.373705098,19.5,3.289220956
19.51,3.284,19.51,3.541705098,19.51,3.302731521
19.52,3.306,19.52,3.594,19.52,3.291816772
19.53,3.281,19.53,3.530705098,19.53,3.280735942
19.54,3.281,19.54,3.336705098,19.54,3.234429735
19.55,3.299,19.55,3.112294902,19.55,3.196779044
19.56,3.294,19.56,2.995294902,19.56,3.234268479
19.57,3.288,19.57,3.011,19.57,3.313183228
19.58,3.244,19.58,3.111294902,19.58,3.361264058
19.59,3.205,19.59,3.304294902,19.59,3.406570265
19.6,3.238,19.6,3.492705098,19.6,3.408220956
19.61,3.311,19.61,3.570705098,19.61,3.331731521
19.62,3.354,19.62,3.59,19.62,3.287816772
19.63,3.397,19.63,3.529705098,19.63,3.279735942
19.64,3.4,19.64,3.360705098,19.64,3.258429735
19.65,3.328,19.65,3.179294902,19.65,3.263779044
19.66,3.29,19.66,3.024294902,19.66,3.263268479
19.67,3.287,19.67,2.95,19.67,3.252183228
19.68,3.268,19.68,3.035294902,19.68,3.285264058
19.69,3.272,19.69,3.149294902,19.69,3.251570265
19.7,3.267,19.7,3.144705098,19.7,3.060220956
19.71,3.25,19.71,3.034705098,19.71,2.795731521
19.72,3.278,19.72,3.39,19.72,3.087816772
19.73,3.242,19.73,4.632705098,19.73,4.382735942
19.74,3.052,19.74,4.342705098,19.74,4.240429735
19.75,2.792,19.75,3.003294902,19.75,3.087779044
19.76,3.09,19.76,2.396294902,19.76,2.635268479
19.77,4.39,19.77,2.636,19.77,2.938183228
19.78,4.25,19.78,2.955294902,19.78,3.205264058
19.79,3.096,19.79,3.144294902,19.79,3.246570265
19.8,2.639,19.8,3.353705098,19.8,3.269220956
19.81,2.936,19.81,3.532705098,19.81,3.293731521
19.82,3.198,19.82,3.589,19.82,3.286816772
19.83,3.237,19.83,3.537705098,19.83,3.287735942
19.84,3.261,19.84,3.384705098,19.84,3.282429735
19.85,3.29,19.85,3.209294902,19.85,3.293779044
19.86,3.289,19.86,3.038294902,19.86,3.277268479
19.87,3.295,19.87,2.952,19.87,3.254183228
19.88,3.292,19.88,3.007294902,19.88,3.257264058
19.89,3.302,19.89,3.151294902,19.89,3.253570265
19.9,3.281,19.9,3.325705098,19.9,3.241220956
19.91,3.252,19.91,3.488705098,19.91,3.249731521
19.92,3.25,19.92,3.567,19.92,3.264816772
19.93,3.244,19.93,3.560705098,19.93,3.310735942
19.94,3.233,19.94,3.467705098,19.94,3.365429735
19.95,3.246,19.95,3.340294902,19.95,3.424779044
19.96,3.267,19.96,3.234294902,19.96,3.473268479
