0.01,3.307,0.01,3.860993948,0.01,2.82566969
0.02,3.297,0.02,4.046352829,0.02,2.828254646
0.03,3.293,0.03,4.779242668,0.03,2.826616732
0.04,3.289,0.04,3.426283176,0.04,2.830756395
0.05,3.284,0.05,4.517575045,0.05,2.820090765
0.06,3.286,0.06,3.905098842,0.06,2.818340616
0.07,3.284,0.07,4.127980069,0.07,2.829340164
0.08,3.288,0.08,4.665201274,0.08,2.85845043
0.09,3.277,0.09,4.022795954,0.09,2.845036233
0.1,3.275,0.1,4.279204497,0.1,2.830702775
0.11,3.286,0.11,4.323709959,0.11,2.830309956
0.12,3.316,0.12,4.35949906,0.12,2.821473665
0.13,3.303,0.13,4.416263894,0.13,2.811782504
0.14,3.289,0.14,4.177860392,0.14,2.803007055
0.15,3.289,0.15,4.428208544,0.15,2.780508614
0.16,3.28,0.16,4.303880409,0.16,2.771316545
0.17,3.269,0.17,3.858456268,0.17,2.803984218
0.18,3.259,0.18,4.588990152,0.18,2.898650553
0.19,3.235,0.19,4.541525152,0.19,2.934931753
0.2,3.224,0.2,4.242609563,0.2,2.930542242
0.21,3.256,0.21,3.841663082,0.21,2.907364393
0.22,3.353,0.22,4.404630261,0.22,2.847682938
0.23,3.393,0.23,4.381288563,0.23,2.810789412
0.24,3.393,0.24,4.437538017,0.24,2.816929369
0.25,3.374,0.25,4.133823341,0.25,2.820075415
0.26,3.316,0.26,4.247873593,0.26,2.812003772
0.27,3.277,0.27,4.126480155,0.27,2.810398066
0.28,3.28,0.28,4.301326233,0.28,2.808758814
0.29,3.28,0.29,4.44098689,0.29,2.793649151
0.3,3.269,0.3,4.103483504,0.3,2.780929163
0.31,3.266,0.31,3.644430937,0.31,2.603020265
0.32,3.264,0.32,3.144215055,0.32,2.338753533
0.33,3.248,0.33,3.964266895,0.33,2.489499312
0.34,3.234,0.34,5.173362202,0.34,3.973623243
0.35,3.05,0.35,5.281505176,0.35,3.967681323
0.36,2.772,0.36,4.684698751,0.36,2.786283356
0.37,2.913,0.37,3.583270557,0.37,2.037947354
0.38,4.43,0.38,3.671934583,0.38,2.274935851
0.39,4.458,0.39,4.539000648,0.39,2.685952508
0.4,3.283,0.4,4.246014089,0.4,2.848314443
0.41,2.528,0.41,3.865931058,0.41,2.829462246
0.42,2.761,0.42,4.216409875,0.42,2.797817435
0.43,3.136,0.43,3.930358721,0.43,2.823530025
0.44,3.265,0.44,3.965487623,0.44,2.846928899
0.45,3.245,0.45,4.32597284,0.45,2.844960666
0.46,3.233,0.46,4.052910612,0.46,2.848292476
0.47,3.273,0.47,4.021544448,0.47,2.831701929
0.48,3.301,0.48,4.496502518,0.48,2.803032341
0.49,3.3,0.49,3.956187076,0.49,2.800254276
0.5,3.305,0.5,4.472608062,0.5,2.793671672
0.51,3.29,0.51,3.882939665,0.51,2.784537493
0.52,3.261,0.52,4.384908606,0.52,2.800569063
0.53,3.257,0.53,4.02695091,0.53,2.788154218
0.54,3.249,0.54,3.964795161,0.54,2.808071949
0.55,3.238,0.55,4.64528174,0.55,2.880680717
0.56,3.253,0.56,4.504996412,0.56,2.952843733
0.57,3.24,0.57,4.279779691,0.57,3.026202565
0.58,3.26,0.58,4.104859214,0.58,3.059054089
0.59,3.335,0.59,4.360786174,0.59,3.022288952
0.6,3.412,0.6,4.857989894,0.6,2.919414483
0.61,3.492,0.61,4.253195097,0.61,2.842874497
0.62,3.533,0.62,4.252735979,0.62,2.768818007
0.63,3.503,0.63,4.395587897,0.63,2.755524671
0.64,3.402,0.64,4.153849752,0.64,2.746879036
0.65,3.323,0.65,4.250690521,0.65,2.769923424
0.66,3.242,0.66,4.33340436,0.66,2.786380759
0.67,3.22,0.67,4.107858907,0.67,2.80116247
0.68,3.203,0.68,3.615068313,0.68,2.828523623
0.69,3.221,0.69,4.202286385,0.69,2.818631627
0.7,3.235,0.7,3.733162371,0.7,2.815295138
0.71,3.25,0.71,4.303366781,0.71,2.814346353
0.72,3.279,0.72,3.940172686,0.72,2.816731564
0.73,3.271,0.73,4.5783625,0.73,2.83831535
0.74,3.269,0.74,4.053831205,0.74,2.838649102
0.75,3.269,0.75,4.296898646,0.75,2.842787549
0.76,3.272,0.76,4.371763112,0.76,2.840952209
0.77,3.294,0.77,4.388497387,0.77,2.832421501
0.78,3.295,0.78,4.932699748,0.78,2.824726791
0.79,3.3,0.79,4.595562925,0.79,2.841586533
0.8,3.299,0.8,4.441094063,0.8,2.831865596
0.81,3.291,0.81,4.68590438,0.81,2.829200698
0.82,3.283,0.82,4.056981031,0.82,2.834172581
0.83,3.3,0.83,4.115850968,0.83,2.840726214
0.84,3.29,0.84,4.215070565,0.84,2.859227173
0.85,3.287,0.85,4.16905566,0.85,2.833172844
0.86,3.292,0.86,4.444297662,0.86,2.825255021
0.87,3.299,0.87,3.713370644,0.87,2.83033569
0.88,3.318,0.88,4.550614662,0.88,2.830612744
0.89,3.292,0.89,4.127968906,0.89,2.81781207
0.9,3.284,0.9,4.233471245,0.9,2.83870079
0.91,3.289,0.91,4.02134012,0.91,2.846144383
0.92,3.289,0.92,4.021696553,0.92,2.847673173
0.93,3.275,0.93,4.469155279,0.93,2.830674283
0.94,3.296,0.94,4.116048067,0.94,2.815698901
0.95,3.304,0.95,3.928188891,0.95,2.819225162
0.96,3.306,0.96,4.016085639,0.96,2.832614569
0.97,3.289,0.97,4.363941682,0.97,2.827229585
0.98,3.274,0.98,3.862018836,0.98,2.81667633
0.99,3.277,0.99,4.29353394,0.99,2.827396629
1,3.29,1,4.356644041,1,2.833033965
1.01,3.284,1.01,4.123251001,1.01,2.834007871
1.02,3.273,1.02,4.345489149,1.02,2.772566672
1.03,3.284,1.03,3.966018007,1.03,2.752426123
1.04,3.29,1.04,4.54973272,1.04,2.80903398
1.05,3.291,1.05,4.246230222,1.05,2.876897424
1.06,3.228,1.06,4.640099652,1.06,2.904962973
1.07,3.206,1.07,4.263578769,1.07,2.942099306
1.08,3.262,1.08,4.427515356,1.08,2.904532128
1.09,3.331,1.09,4.731130415,1.09,2.852910523
1.1,3.361,1.1,3.841245684,1.1,2.81820968
1.11,3.403,1.11,4.529090875,1.11,2.811595149
1.12,3.37,1.12,3.897154247,1.12,2.811270441
1.13,3.32,1.13,3.713255462,1.13,2.819863401
1.14,3.284,1.14,4.510402826,1.14,2.846340491
1.15,3.275,1.15,4.171456829,1.15,2.82539867
1.16,3.271,1.16,4.09381918,1.16,2.809649229
1.17,3.277,1.17,4.109046842,1.17,2.680484906
1.18,3.303,1.18,4.354608595,1.18,2.430742043
1.19,3.282,1.19,3.845959668,1.19,2.305638812
1.2,3.266,1.2,4.429750945,1.2,3.377718396
1.21,3.133,1.21,5.06074822,1.21,3.984629467
1.22,2.872,1.22,4.410434486,1.22,3.258598291
1.23,2.731,1.23,4.047892432,1.23,2.225043729
1.24,3.818,1.24,3.396807046,1.24,2.182611671
1.25,4.458,1.25,3.830236872,1.25,2.563559754
1.26,3.749,1.26,4.203555434,1.26,2.792123692
1.27,2.711,1.27,4.247120877,1.27,2.849747617
1.28,2.667,1.28,4.395277614,1.28,2.847004329
1.29,3.026,1.29,4.194816376,1.29,2.85818711
1.3,3.22,1.3,4.254109934,1.3,2.864961128
1.31,3.264,1.31,4.188012495,1.31,2.829094153
1.32,3.277,1.32,3.947106076,1.32,2.837200575
1.33,3.306,1.33,3.778811262,1.33,2.830834521
1.34,3.321,1.34,4.708998411,1.34,2.799197283
1.35,3.287,1.35,4.231145403,1.35,2.781535357
1.36,3.296,1.36,4.136318616,1.36,2.802366938
1.37,3.29,1.37,4.712202768,1.37,2.802481613
1.38,3.257,1.38,4.254887349,1.38,2.798571354
1.39,3.237,1.39,4.40611981,1.39,2.797767167
1.4,3.257,1.4,4.302646856,1.4,2.837262746
1.41,3.256,1.41,4.683904997,1.41,2.872289906
1.42,3.251,1.42,4.409803099,1.42,2.905289521
1.43,3.25,1.43,4.425311156,1.43,2.96631199
1.44,3.291,1.44,4.574965253,1.44,3.024495677
1.45,3.328,1.45,4.711981976,1.45,3.010071787
1.46,3.364,1.46,4.135745603,1.46,2.959980036
1.47,3.43,1.47,4.355564286,1.47,2.885940462
1.48,3.495,1.48,4.099982704,1.48,2.808990035
1.49,3.486,1.49,4.771142724,1.49,2.778884657
1.5,3.439,1.5,4.415204755,1.5,2.756370178
1.51,3.365,1.51,3.877841762,1.51,2.754775902
1.52,3.284,1.52,4.56922291,1.52,2.746485242
1.53,3.247,1.53,3.942346635,1.53,2.789768832
1.54,3.217,1.54,4.461904247,1.54,2.831827942
1.55,3.209,1.55,4.038545373,1.55,2.809636747
1.56,3.196,1.56,4.880080458,1.56,2.818912581
1.57,3.238,1.57,4.324788586,1.57,2.834319385
1.58,3.281,1.58,4.45100357,1.58,2.829981706
1.59,3.26,1.59,4.060603473,1.59,2.830817143
1.6,3.271,1.6,4.530180657,1.6,2.8145093
1.61,3.289,1.61,3.820829015,1.61,2.821312092
1.62,3.286,1.62,4.283708829,1.62,2.843006095
1.63,3.287,1.63,4.172293612,1.63,2.837757519
1.64,3.271,1.64,4.278725821,1.64,2.830731723
1.65,3.278,1.65,4.133762235,1.65,2.820534966
1.66,3.3,1.66,4.316453671,1.66,2.828309574
1.67,3.295,1.67,4.674773559,1.67,2.855920896
1.68,3.288,1.68,3.862065075,1.68,2.846645444
1.69,3.278,1.69,4.199481125,1.69,2.835479943
1.7,3.286,1.7,4.175934504,1.7,2.84669836
1.71,3.314,1.71,4.079319645,1.71,2.849056117
1.72,3.305,1.72,4.460228773,1.72,2.83267003
1.73,3.294,1.73,3.829932939,1.73,2.824282035
1.74,3.306,1.74,4.322687468,1.74,2.818752495
1.75,3.309,1.75,4.156644519,1.75,2.795254295
1.76,3.292,1.76,4.095555822,1.76,2.827950399
1.77,3.283,1.77,4.193580783,1.77,2.840813022
1.78,3.277,1.78,4.406546927,1.78,2.823899835
1.79,3.252,1.79,4.0880384,1.79,2.828678448
1.8,3.284,1.8,4.351607001,1.8,2.791785511
1.81,3.297,1.81,4.034923212,1.81,2.761674778
1.82,3.28,1.82,3.943737354,1.82,2.804758304
1.83,3.285,1.83,4.847796979,1.83,2.865647174
1.84,3.248,1.84,4.408876108,1.84,2.914264428
1.85,3.216,1.85,4.693606374,1.85,2.936126279
1.86,3.258,1.86,4.063701452,1.86,2.915533034
1.87,3.32,1.87,4.908935434,1.87,2.845022872
1.88,3.371,1.88,3.933664407,1.88,2.803431435
1.89,3.397,1.89,3.849777835,1.89,2.826677814
1.9,3.381,1.9,4.44307144,1.9,2.821880276
1.91,3.312,1.91,4.337045353,1.91,2.820754596
1.92,3.269,1.92,4.346480268,1.92,2.80614869
1.93,3.29,1.93,4.345702845,1.93,2.795646589
1.94,3.282,1.94,4.5020035,1.94,2.828813331
1.95,3.278,1.95,4.621544423,1.95,2.764595772
1.96,3.262,1.96,4.132826552,1.96,2.556273547
1.97,3.251,1.97,3.935042845,1.97,2.330169393
1.98,3.284,1.98,3.84097941,1.98,2.770539484
1.99,3.218,1.99,5.516851721,1.99,3.994908115
2,3.002,2,5.373874584,2,3.714559974
2.01,2.762,2.01,4.064821195,2.01,2.531049203
2.02,3.201,2.02,3.467846111,2.02,2.161036229
2.03,4.458,2.03,3.882074197,2.03,2.464944797
2.04,4.205,2.04,4.03788923,2.04,2.756923794
2.05,3.022,2.05,4.211966597,2.05,2.820927453
2.06,2.649,2.06,4.726530135,2.06,2.816847475
2.07,2.946,2.07,4.540058117,2.07,2.841144938
2.08,3.203,2.08,4.182617354,2.08,2.846299443
2.09,3.24,2.09,4.808286262,2.09,2.863071038
2.1,3.242,2.1,4.208507632,2.1,2.839485271
2.11,3.284,2.11,3.790373601,2.11,2.830172677
2.12,3.299,2.12,4.207445999,2.12,2.827113545
2.13,3.319,2.13,4.208156506,2.13,2.791502666
2.14,3.297,2.14,4.025279639,2.14,2.785673119
2.15,3.289,2.15,3.958076981,2.15,2.779452567
2.16,3.286,2.16,4.212582879,2.16,2.779066916
2.17,3.249,2.17,4.282250845,2.17,2.801988619
2.18,3.241,2.18,4.590818189,2.18,2.82229527
2.19,3.233,2.19,3.766605363,2.19,2.850545523
2.2,3.231,2.2,4.30914905,2.2,2.892320367
2.21,3.253,2.21,4.844104734,2.21,2.974590248
2.22,3.274,2.22,4.518564577,2.22,3.025861106
2.23,3.304,2.23,3.925514898,2.23,3.020687067
2.24,3.349,2.24,4.1711811,2.24,2.98325857
2.25,3.437,2.25,4.285832778,2.25,2.893550391
2.26,3.495,2.26,4.16957507,2.26,2.830155083
2.27,3.496,2.27,4.491768723,2.27,2.787742265
2.28,3.463,2.28,4.136762334,2.28,2.753532823
2.29,3.374,2.29,3.707531538,2.29,2.745828732
2.3,3.307,2.3,4.004403991,2.3,2.761341529
2.31,3.258,2.31,4.669868076,2.31,2.788295281
2.32,3.216,2.32,4.180016432,2.32,2.802496515
2.33,3.201,2.33,3.997707681,2.33,2.814164075
2.34,3.212,2.34,3.791736125,2.34,2.823104713
2.35,3.237,2.35,4.136148819,2.35,2.809683951
2.36,3.251,2.36,4.100923067,2.36,2.820624826
2.37,3.264,2.37,4.115116972,2.37,2.846204507
2.38,3.275,2.38,3.554490399,2.38,2.841259744
2.39,3.263,2.39,4.676430747,2.39,2.837705064
2.4,3.275,2.4,4.298491852,2.4,2.83195149
2.41,3.302,2.41,4.525149468,2.41,2.81986502
2.42,3.298,2.42,4.04144275,2.42,2.819560214
2.43,3.295,2.43,4.37475375,2.43,2.824033091
2.44,3.29,2.44,4.466893911,2.44,2.832201094
2.45,3.278,2.45,4.196460814,2.45,2.839036007
2.46,3.277,2.46,4.541715575,2.46,2.849229905
2.47,3.281,2.47,4.530436772,2.47,2.849367658
2.48,3.289,2.48,4.259962443,2.48,2.852504709
2.49,3.296,2.49,3.822153306,2.49,2.842142192
2.5,3.307,2.5,3.754321028,2.5,2.831279778
2.51,3.308,2.51,4.179325008,2.51,2.822001876
2.52,3.312,2.52,4.401049247,2.52,2.837334727
2.53,3.302,2.53,3.281,2.53,2.823198825
2.54,3.291,2.54,4.171514975,2.54,2.835450545
2.55,3.281,2.55,4.187708028,2.55,2.818868304
2.56,3.296,2.56,3.968703992,2.56,2.796645818
2.57,3.281,2.57,3.891515706,2.57,2.8231181
2.58,3.293,2.58,4.072778522,2.58,2.803729791
2.59,3.276,2.59,4.004328101,2.59,2.777457102
2.6,3.253,2.6,4.193200338,2.6,2.791346624
2.61,3.279,2.61,4.174329504,2.61,2.855758586
2.62,3.259,2.62,3.868148377,2.62,2.886984988
2.63,3.231,2.63,3.738442143,2.63,2.930347467
2.64,3.244,2.64,4.303274375,2.64,2.942451411
2.65,3.31,2.65,4.308414275,2.65,2.861109328
2.66,3.343,2.66,4.723083272,2.66,2.811019094
2.67,3.39,2.67,4.465102747,2.67,2.820621551
2.68,3.407,2.68,4.506098405,2.68,2.800209456
2.69,3.328,2.69,4.074672303,2.69,2.815946179
2.7,3.277,2.7,4.046179194,2.7,2.834980088
2.71,3.285,2.71,4.098550002,2.71,2.846258176
2.72,3.261,2.72,4.490823048,2.72,2.802012574
2.73,3.273,2.73,4.375110873,2.73,2.599878468
2.74,3.291,2.74,3.99023476,2.74,2.343578511
2.75,3.303,2.75,3.642450308,2.75,2.448185703
2.76,3.258,2.76,5.298216364,2.76,3.823153381
2.77,3.05,2.77,5.351586229,2.77,3.972873983
2.78,2.78,2.78,4.660223634,2.78,2.818700954
2.79,2.873,2.79,3.935927731,2.79,2.167043241
2.8,4.275,2.8,3.961666393,2.8,2.366316477
2.81,4.458,2.81,3.820473412,2.81,2.687756199
2.82,3.311,2.82,4.368709946,2.82,2.804163377
2.83,2.656,2.83,4.344664938,2.83,2.841574668
2.84,2.855,2.84,4.539110832,2.84,2.836329567
2.85,3.145,2.85,4.154834194,2.85,2.843086627
2.86,3.227,2.86,3.924650033,2.86,2.836989031
2.87,3.263,2.87,4.287355531,2.87,2.827399906
2.88,3.275,2.88,3.963317441,2.88,2.83070209
2.89,3.294,2.89,4.43586916,2.89,2.833254991
2.9,3.292,2.9,4.50277451,2.9,2.809034666
2.91,3.284,2.91,3.937308759,2.91,2.807813169
2.92,3.288,2.92,4.24162337,2.92,2.807395755
2.93,3.291,2.93,4.197880448,2.93,2.781842711
2.94,3.266,2.94,3.864921579,2.94,2.759069449
2.95,3.264,2.95,4.925659691,2.95,2.786846354
2.96,3.263,2.96,4.2845659,2.96,2.845901952
2.97,3.236,2.97,4.629166927,2.97,2.891600698
2.98,3.211,2.98,4.514122989,2.98,2.960488529
2.99,3.238,2.99,4.41978226,2.99,3.019811355
3,3.298,3,4.59188281,3,3.043020574
3.01,3.346,3.01,4.589485401,3.01,3.003842966
3.02,3.42,3.02,3.724995753,3.02,2.920274688
3.03,3.487,3.03,4.735060854,3.03,2.842987515
3.04,3.518,3.04,4.152203508,3.04,2.777571264
3.05,3.484,3.05,4.302278295,3.05,2.750999884
3.06,3.402,3.06,4.070063855,3.06,2.742934776
3.07,3.322,3.07,4.338025929,3.07,2.761228851
3.08,3.25,3.08,4.025537078,3.08,2.790546428
3.09,3.215,3.09,4.365180276,3.09,2.797663689
3.1,3.199,3.1,4.11808276,3.1,2.801664835
3.11,3.212,3.11,4.236902405,3.11,2.826465457
3.12,3.239,3.12,4.187786142,3.12,2.833377574
3.13,3.246,3.13,5.095174383,3.13,2.826209804
3.14,3.251,3.14,4.31910887,3.14,2.80870767
3.15,3.278,3.15,4.409548804,3.15,2.821952436
3.16,3.287,3.16,4.540355615,3.16,2.828757004
3.17,3.281,3.17,4.288678541,3.17,2.838536565
3.18,3.264,3.18,3.813432111,3.18,2.842037866
3.19,3.278,3.19,3.918458521,3.19,2.824536023
3.2,3.285,3.2,4.629421327,3.2,2.83706139
3.21,3.295,3.21,3.772122788,3.21,2.84455946
3.22,3.299,3.22,4.348854188,3.22,2.840449259
3.23,3.282,3.23,4.494387446,3.23,2.826840124
3.24,3.295,3.24,4.271556357,3.24,2.843281322
3.25,3.303,3.25,4.730269725,3.25,2.850863642
3.26,3.299,3.26,3.84799824,3.26,2.849698685
3.27,3.285,3.27,4.122006813,3.27,2.825117056
3.28,3.302,3.28,4.380010552,3.28,2.819308498
3.29,3.31,3.29,4.105487191,3.29,2.820946256
3.3,3.309,3.3,4.100791578,3.3,2.842225241
3.31,3.284,3.31,4.614171903,3.31,2.84734036
3.32,3.278,3.32,4.614369288,3.32,2.827314175
3.33,3.279,3.33,4.113863947,3.33,2.819340382
3.34,3.3,3.34,4.165423607,3.34,2.822309055
3.35,3.305,3.35,3.746299918,3.35,2.805366141
3.36,3.285,3.36,3.995857038,3.36,2.76184351
3.37,3.277,3.37,3.894595424,3.37,2.760844208
3.38,3.28,3.38,4.12710491,3.38,2.842341916
3.39,3.262,3.39,4.772251744,3.39,2.911929097
3.4,3.216,3.4,4.308598396,3.4,2.944990494
3.41,3.213,3.41,3.777000981,3.41,2.937818381
3.42,3.295,3.42,4.188303097,3.42,2.878108908
3.43,3.367,3.43,3.966589412,3.43,2.82126427
3.44,3.404,3.44,4.114718831,3.44,2.812731379
3.45,3.402,3.45,4.464555309,3.45,2.801653116
3.46,3.346,3.46,4.402376939,3.46,2.796776802
3.47,3.289,3.47,4.258213585,3.47,2.806146592
3.48,3.278,3.48,4.103646102,3.48,2.818593335
3.49,3.263,3.49,4.068925908,3.49,2.818735141
3.5,3.254,3.5,4.277745635,3.5,2.806791923
3.51,3.261,3.51,4.026331892,3.51,2.655907164
3.52,3.273,3.52,3.806077745,3.52,2.408414474
3.53,3.273,3.53,3.202312661,3.53,2.338583492
3.54,3.261,3.54,5.224177438,3.54,3.616600622
3.55,3.106,3.55,5.136530868,3.55,3.97838713
3.56,2.847,3.56,4.342263657,3.56,3.018275352
3.57,2.763,3.57,3.811590615,3.57,2.181214996
3.58,4.063,3.58,3.644500217,3.58,2.301293864
3.59,4.458,3.59,4.019006268,3.59,2.648797748
3.6,3.509,3.6,4.284711163,3.6,2.806050386
3.61,2.667,3.61,4.231271687,3.61,2.843022692
3.62,2.788,3.62,3.796658374,3.62,2.833258782
3.63,3.109,3.63,4.60169727,3.63,2.819842362
3.64,3.232,3.64,4.022936869,3.64,2.834821649
3.65,3.262,3.65,4.074441624,3.65,2.853649477
3.66,3.269,3.66,3.485621595,3.66,2.863981474
3.67,3.269,3.67,4.220599263,3.67,2.827509243
3.68,3.289,3.68,4.420803075,3.68,2.798838974
3.69,3.31,3.69,4.504511668,3.69,2.78222447
3.7,3.322,3.7,4.085814816,3.7,2.769614827
3.71,3.286,3.71,3.880072002,3.71,2.782066127
3.72,3.257,3.72,3.836945561,3.72,2.796154559
3.73,3.239,3.73,3.845513882,3.73,2.816851976
3.74,3.224,3.74,4.788284793,3.74,2.84035254
3.75,3.234,3.75,4.405195449,3.75,2.886070584
3.76,3.247,3.76,4.748772976,3.76,2.960842111
3.77,3.268,3.77,4.85254347,3.77,3.011391094
3.78,3.293,3.78,4.564323731,3.78,3.041493828
3.79,3.342,3.79,4.575486326,3.79,3.00903763
3.8,3.422,3.8,4.457018309,3.8,2.908692186
3.81,3.479,3.81,4.278699708,3.81,2.846377483
3.82,3.516,3.82,4.157850132,3.82,2.789404072
3.83,3.489,3.83,4.544557618,3.83,2.749805755
3.84,3.39,3.84,4.488400637,3.84,2.744825061
3.85,3.325,3.85,3.796909484,3.85,2.750089082
3.86,3.262,3.86,4.47234361,3.86,2.776878578
3.87,3.214,3.87,4.421293964,3.87,2.809996442
3.88,3.201,3.88,4.002775646,3.88,2.833080887
3.89,3.201,3.89,4.177763367,3.89,2.83274583
3.9,3.225,3.9,4.85060423,3.9,2.821656913
3.91,3.258,3.91,4.301644843,3.91,2.820233555
3.92,3.283,3.92,3.900455086,3.92,2.820702009
3.93,3.285,3.93,3.78928189,3.93,2.822813438
3.94,3.276,3.94,4.704662434,3.94,2.818120499
3.95,3.276,3.95,4.612667872,3.95,2.824981216
3.96,3.277,3.96,4.357916968,3.96,2.844285747
3.97,3.279,3.97,4.438380969,3.97,2.84361932
3.98,3.274,3.98,4.090911852,3.98,2.837175281
3.99,3.281,3.99,4.148248134,3.99,2.8249232
4,3.301,4,4.458593094,4,2.843336155
4.01,3.301,4.01,4.601129309,4.01,2.848169906
4.02,3.295,4.02,4.229285934,4.02,2.846060656
4.03,3.283,4.03,4.083373466,4.03,2.836061324
4.04,3.302,4.04,4.251521113,4.04,2.837669175
4.05,3.307,4.05,4.583980415,4.05,2.822252602
4.06,3.305,4.06,4.118958271,4.06,2.81811482
4.07,3.295,4.07,4.324695333,4.07,2.835448745
4.08,3.297,4.08,4.125518779,4.08,2.844255001
4.09,3.281,4.09,4.358776124,4.09,2.833424828
4.1,3.276,4.1,4.36394531,4.1,2.815647104
4.11,3.293,4.11,3.799651909,4.11,2.824476834
4.12,3.302,4.12,4.692980035,4.12,2.828670748
4.13,3.291,4.13,4.074376272,4.13,2.813563223
4.14,3.273,4.14,4.403580928,4.14,2.757761738
4.15,3.282,4.15,4.041832743,4.15,2.749732322
4.16,3.286,4.16,4.485826807,4.16,2.835562869
4.17,3.27,4.17,4.301178297,4.17,2.900650903
4.18,3.212,4.18,4.435681839,4.18,2.917742955
4.19,3.202,4.19,4.202406667,4.19,2.922932054
4.2,3.288,4.2,4.176486498,4.2,2.891582462
4.21,3.355,4.21,4.383767551,4.21,2.851711546
4.22,3.375,4.22,3.899437266,4.22,2.814792521
4.23,3.385,4.23,4.414695903,4.23,2.824237019
4.24,3.358,4.24,3.636539355,4.24,2.818216507
4.25,3.319,4.25,4.32864438,4.25,2.819474998
4.26,3.28,4.26,4.519031475,4.26,2.818702374
4.27,3.287,4.27,4.298895427,4.27,2.812035641
4.28,3.278,4.28,3.991923456,4.28,2.813536916
4.29,3.277,4.29,4.181285521,4.29,2.695180942
4.3,3.275,4.3,3.690833428,4.3,2.4800508
4.31,3.268,4.31,3.754887024,4.31,2.343056061
4.32,3.269,4.32,5.21598278,4.32,3.327108
4.33,3.147,4.33,4.958153899,4.33,3.983095485
4.34,2.922,4.34,5.016171633,4.34,3.279809475
4.35,2.771,4.35,3.998743192,4.35,2.212986773
4.36,3.769,4.36,3.772479697,4.36,2.16228612
4.37,4.458,4.37,4.02882067,4.37,2.533725758
4.38,3.772,4.38,4.133911893,4.38,2.777732816
4.39,2.699,4.39,3.977982657,4.39,2.850056537
4.4,2.645,4.4,4.137849612,4.4,2.8625926
4.41,2.995,4.41,3.919875149,4.41,2.872775656
4.42,3.204,4.42,4.47478741,4.42,2.846214422
4.43,3.262,4.43,4.58118077,4.43,2.83375969
4.44,3.291,4.44,4.161380498,4.44,2.845558329
4.45,3.32,4.45,4.195477887,4.45,2.840305832
4.46,3.302,4.46,3.983493713,4.46,2.828226294
4.47,3.292,4.47,4.586771345,4.47,2.801422207
4.48,3.305,4.48,4.032671724,4.48,2.794559715
4.49,3.3,4.49,4.290177251,4.49,2.791200466
4.5,3.287,4.5,4.4368521,4.5,2.769372024
4.51,3.259,4.51,4.33897015,4.51,2.797430947
4.52,3.251,4.52,4.53198282,4.52,2.820070693
4.53,3.246,4.53,4.351428795,4.53,2.872960079
4.54,3.222,4.54,4.243544485,4.54,2.930015046
4.55,3.249,4.55,4.517250699,4.55,2.981785343
4.56,3.272,4.56,4.826389618,4.56,3.038525763
4.57,3.327,4.57,4.400349869,4.57,3.011486774
4.58,3.388,4.58,4.795377697,4.58,2.943781543
4.59,3.446,4.59,4.48343343,4.59,2.860132388
4.6,3.51,4.6,4.160215086,4.6,2.780460877
4.61,3.489,4.61,4.290858931,4.61,2.754525104
4.62,3.424,4.62,4.185903851,4.62,2.753263233
4.63,3.339,4.63,4.272222093,4.63,2.789336124
4.64,3.254,4.64,4.082751439,4.64,2.793989949
4.65,3.22,4.65,4.640013736,4.65,2.795245447
4.66,3.211,4.66,4.293779944,4.66,2.812049257
4.67,3.242,4.67,4.28493357,4.67,2.815461267
4.68,3.244,4.68,4.018246863,4.68,2.816683066
4.69,3.245,4.69,4.077487794,4.69,2.82082027
4.7,3.263,4.7,3.541008064,4.7,2.839427667
4.71,3.268,4.71,4.282115033,4.71,2.842426794
4.72,3.27,4.72,4.312220555,4.72,2.814343914
4.73,3.275,4.73,3.850895355,4.73,2.820146784
4.74,3.295,4.74,4.205969258,4.74,2.839531789
4.75,3.299,4.75,4.787261172,4.75,2.828783907
4.76,3.271,4.76,4.561223304,4.76,2.833037207
4.77,3.277,4.77,4.619416333,4.77,2.824729648
4.78,3.297,4.78,4.71119834,4.78,2.832366108
4.79,3.286,4.79,4.561221127,4.79,2.845200278
4.8,3.29,4.8,4.037762462,4.8,2.839867263
4.81,3.282,4.81,3.892597495,4.81,2.841589899
4.82,3.29,4.82,3.872731157,4.82,2.833310333
4.83,3.303,4.83,4.27255846,4.83,2.811865203
4.84,3.298,4.84,4.406026362,4.84,2.850697396
4.85,3.3,4.85,4.179785579,4.85,2.842615028
4.86,3.292,4.86,4.150102482,4.86,2.825090656
4.87,3.27,4.87,4.161068098,4.87,2.822424201
4.88,3.309,4.88,3.712938924,4.88,2.822141423
4.89,3.301,4.89,3.734195418,4.89,2.826838214
4.9,3.283,4.9,4.515371856,4.9,2.775787597
4.91,3.28,4.91,4.530068853,4.91,2.76362149
4.92,3.28,4.92,4.035996732,4.92,2.807174994
4.93,3.284,4.93,4.323196664,4.93,2.882592382
4.94,3.231,4.94,4.551931661,4.94,2.930710697
4.95,3.217,4.95,4.277746596,4.95,2.932181774
4.96,3.26,4.96,4.722238837,4.96,2.880588366
4.97,3.337,4.97,3.919676248,4.97,2.827630703
4.98,3.388,4.98,4.599333104,4.98,2.828817018
4.99,3.394,4.99,3.948322621,4.99,2.83240312
5,3.346,5,4.264147619,5,2.809887179
5.01,3.294,5.01,4.031405157,5.01,2.817866421
5.02,3.294,5.02,3.694651761,5.02,2.82519948
5.03,3.295,5.03,4.074655817,5.03,2.815812847
5.04,3.269,5.04,4.246592536,5.04,2.810621834
5.05,3.275,5.05,3.964187423,5.05,2.703763651
5.06,3.282,5.06,3.795302265,5.06,2.475688616
5.07,3.272,5.07,3.286972225,5.07,2.284558044
5.08,3.266,5.08,3.967713963,5.08,3.164419525
5.09,3.156,5.09,5.318338079,5.09,3.989315445
5.1,2.918,5.1,4.736498489,5.1,3.353367583
5.11,2.711,5.11,3.76087255,5.11,2.356475204
5.12,3.6,5.12,3.458487067,5.12,2.256390892
5.13,4.458,5.13,4.062878259,5.13,2.594135038
5.14,3.841,5.14,3.632422211,5.14,2.782684198
5.15,2.842,5.15,4.671171614,5.15,2.826334834
5.16,2.743,5.16,4.584644707,5.16,2.852017737
5.17,3.066,5.17,4.082958847,5.17,2.848570696
5.18,3.22,5.18,4.189349588,5.18,2.835324663
5.19,3.247,5.19,4.322460538,5.19,2.828512503
5.2,3.285,5.2,5.05395935,5.2,2.807034723
5.21,3.297,5.21,4.108839021,5.21,2.823171621
5.22,3.29,5.22,4.000373619,5.22,2.822673193
5.23,3.285,5.23,4.483410089,5.23,2.817147923
5.24,3.264,5.24,4.105494659,5.24,2.793178455
5.25,3.28,5.25,4.76438723,5.25,2.778065564
5.26,3.279,5.26,4.32468138,5.26,2.78912122
5.27,3.273,5.27,3.83035031,5.27,2.792096203
5.28,3.248,5.28,4.23604838,5.28,2.821099851
5.29,3.232,5.29,4.897625469,5.29,2.867071947
5.3,3.242,5.3,4.08730869,5.3,2.929734724
5.31,3.244,5.31,4.484435599,5.31,3.01122925
5.32,3.273,5.32,4.324145065,5.32,3.044637143
5.33,3.321,5.33,4.242041362,5.33,3.00868218
5.34,3.388,5.34,4.43954393,5.34,2.937946128
5.35,3.476,5.35,4.125195382,5.35,2.868043828
5.36,3.517,5.36,4.019515361,5.36,2.788959743
5.37,3.487,5.37,4.37646508,5.37,2.735748802
5.38,3.419,5.38,3.8398178,5.38,2.75342978
5.39,3.348,5.39,3.959890453,5.39,2.778667946
5.4,3.263,5.4,4.371121028,5.4,2.779990591
5.41,3.201,5.41,4.251438606,5.41,2.790664972
5.42,3.211,5.42,4.52058154,5.42,2.812938943
5.43,3.231,5.43,4.724153364,5.43,2.827046879
5.44,3.229,5.44,4.081406394,5.44,2.819880084
5.45,3.239,5.45,4.070045772,5.45,2.811849277
5.46,3.263,5.46,4.449377917,5.46,2.803317118
5.47,3.279,5.47,4.360084005,5.47,2.818036846
5.48,3.273,5.48,4.313883273,5.48,2.851259239
5.49,3.266,5.49,4.548780904,5.49,2.848372288
5.5,3.258,5.5,4.330887187,5.5,2.835622728
5.51,3.273,5.51,4.418676767,5.51,2.84825626
5.52,3.307,5.52,4.150622191,5.52,2.839529749
5.53,3.305,5.53,4.22975673,5.53,2.831003437
5.54,3.293,5.54,4.47341587,5.54,2.826559798
5.55,3.307,5.55,3.845157172,5.55,2.832613679
5.56,3.299,5.56,4.657598818,5.56,2.83986528
5.57,3.29,5.57,4.153460007,5.57,2.828228583
5.58,3.285,5.58,4.055804742,5.58,2.828339857
5.59,3.291,5.59,4.409971109,5.59,2.843865628
5.6,3.298,5.6,4.450492323,5.6,2.847448828
5.61,3.286,5.61,4.613998768,5.61,2.849172707
5.62,3.286,5.62,3.957615087,5.62,2.831061116
5.63,3.302,5.63,4.222569315,5.63,2.810531426
5.64,3.306,5.64,3.800510145,5.64,2.807558492
5.65,3.308,5.65,4.511861862,5.65,2.824253362
5.66,3.29,5.66,4.870447653,5.66,2.82597984
5.67,3.269,5.67,4.551452854,5.67,2.763013494
5.68,3.265,5.68,4.115992785,5.68,2.762512427
5.69,3.281,5.69,4.712907173,5.69,2.832923973
5.7,3.282,5.7,4.291992426,5.7,2.896954448
5.71,3.217,5.71,4.304888246,5.71,2.929046319
5.72,3.215,5.72,4.991221646,5.72,2.916541786
5.73,3.286,5.73,4.066414283,5.73,2.877944578
5.74,3.352,5.74,3.987701181,5.74,2.852016526
5.75,3.387,5.75,4.880497976,5.75,2.822790949
5.76,3.379,5.76,4.318943234,5.76,2.815822686
5.77,3.344,5.77,4.361155493,5.77,2.82155165
5.78,3.319,5.78,3.728362981,5.78,2.808724866
5.79,3.288,5.79,4.145629123,5.79,2.802424706
5.8,3.278,5.8,3.992668715,5.8,2.814925396
5.81,3.281,5.81,4.4631677,5.81,2.824870246
5.82,3.266,5.82,4.16962828,5.82,2.680045628
5.83,3.258,5.83,3.511658034,5.83,2.437832469
5.84,3.27,5.84,3.698534621,5.84,2.293806674
5.85,3.28,5.85,4.941464155,5.85,3.376577585
5.86,3.131,5.86,5.566400941,5.86,3.98487931
5.87,2.878,5.87,4.672049011,5.87,3.205322732
5.88,2.719,5.88,4.500714853,5.88,2.273598747
5.89,3.817,5.89,4.022872775,5.89,2.28102493
5.9,4.458,5.9,4.135458107,5.9,2.605673926
5.91,3.694,5.91,4.522541852,5.91,2.778517511
5.92,2.759,5.92,4.249627115,5.92,2.82223391
5.93,2.768,5.93,3.972266516,5.93,2.832153341
5.94,3.072,5.94,4.029192505,5.94,2.839681941
5.95,3.21,5.95,4.544875346,5.95,2.852159194
5.96,3.241,5.96,4.180099585,5.96,2.857263859
5.97,3.265,5.97,4.669578015,5.97,2.826065543
5.98,3.287,5.98,4.337537678,5.98,2.808033644
5.99,3.306,5.99,4.499439096,5.99,2.797919531
6,3.314,6,4.079316309,6,2.801281604
6.01,3.284,6.01,4.555917927,6.01,2.801898443
6.02,3.266,6.02,4.348842371,6.02,2.79101343
6.03,3.255,6.03,4.086751755,6.03,2.80037552
6.04,3.257,6.04,4.564428208,6.04,2.810152775
6.05,3.256,6.05,4.325463036,6.05,2.827486511
6.06,3.244,6.06,4.248921518,6.06,2.873458011
6.07,3.253,6.07,3.899699894,6.07,2.940120185
6.08,3.263,6.08,4.275303267,6.08,2.997282077
6.09,3.281,6.09,4.313161139,6.09,3.031580235
6.1,3.329,6.1,4.338574517,6.1,3.013707621
6.11,3.4,6.11,4.334800603,6.11,2.936251072
6.12,3.463,6.12,3.901804589,6.12,2.852158434
6.13,3.504,6.13,4.409308188,6.13,2.78582237
6.14,3.492,6.14,4.196946375,6.14,2.759580606
6.15,3.417,6.15,4.236899879,6.15,2.75632031
6.16,3.331,6.16,4.306042166,6.16,2.761976911
6.17,3.259,6.17,4.113166875,6.17,2.781766921
6.18,3.225,6.18,4.684339606,6.18,2.78546709
6.19,3.214,6.19,4.053210576,6.19,2.815356336
6.2,3.214,6.2,4.09674801,6.2,2.826577008
6.21,3.231,6.21,4.101078991,6.21,2.819935718
6.22,3.234,6.22,4.217449031,6.22,2.833348975
6.23,3.265,6.23,4.193973033,6.23,2.830871489
6.24,3.278,6.24,4.697705004,6.24,2.832203228
6.25,3.273,6.25,4.0217568,6.25,2.833841644
6.26,3.288,6.26,4.299536999,6.26,2.817784657
6.27,3.287,6.27,3.862957908,6.27,2.823978728
6.28,3.289,6.28,4.236154128,6.28,2.831922485
6.29,3.291,6.29,4.282717086,6.29,2.853311476
6.3,3.275,6.3,4.385630633,6.3,2.822620269
6.31,3.281,6.31,4.627051771,6.31,2.813730002
6.32,3.289,6.32,4.080316732,6.32,2.8499757
6.33,3.311,6.33,3.986329068,6.33,2.854308312
6.34,3.28,6.34,3.932346814,6.34,2.851341332
6.35,3.271,6.35,3.843625685,6.35,2.841756835
6.36,3.308,6.36,4.147569717,6.36,2.839945564
6.37,3.313,6.37,4.632670735,6.37,2.833362018
6.38,3.31,6.38,4.431769714,6.38,2.820308069
6.39,3.301,6.39,4.123495673,6.39,2.830892271
6.4,3.3,6.4,4.361665622,6.4,2.823448908
6.41,3.293,6.41,4.116695489,6.41,2.820089938
6.42,3.279,6.42,4.478672362,6.42,2.813730339
6.43,3.289,6.43,4.405518731,6.43,2.81592382
6.44,3.281,6.44,3.86651593,6.44,2.82903589
6.45,3.277,6.45,3.841535435,6.45,2.813371057
6.46,3.27,6.46,4.775078723,6.46,2.779567599
6.47,3.272,6.47,3.761672609,6.47,2.766955518
6.48,3.285,6.48,4.758807912,6.48,2.826730189
6.49,3.269,6.49,4.016833595,6.49,2.901732563
6.5,3.234,6.5,4.652352432,6.5,2.948876052
6.51,3.22,6.51,4.45269111,6.51,2.945984898
6.52,3.28,6.52,4.197043844,6.52,2.878472984
6.53,3.357,6.53,4.073211053,6.53,2.813432379
6.54,3.408,6.54,3.96931889,6.54,2.799980655
6.55,3.41,6.55,4.382507913,6.55,2.809790446
6.56,3.346,6.56,4.635322705,6.56,2.833109351
6.57,3.281,6.57,3.863209781,6.57,2.81812071
6.58,3.265,6.58,4.34039763,6.58,2.801789737
6.59,3.271,6.59,4.575469052,6.59,2.818536584
6.6,3.291,6.6,4.179085041,6.6,2.823312726
6.61,3.274,6.61,4.009831791,6.61,2.7001826
6.62,3.257,6.62,4.138308204,6.62,2.458581609
6.63,3.274,6.63,3.302902842,6.63,2.277945807
6.64,3.279,6.64,4.901885779,6.64,3.3592989
6.65,3.152,6.65,4.961072126,6.65,3.984568968
6.66,2.9,6.66,4.905317422,6.66,3.2279587
6.67,2.704,6.67,4.115337997,6.67,2.25149216
6.68,3.8,6.68,3.449590674,6.68,2.231918068
6.69,4.458,6.69,4.300196298,6.69,2.612921581
6.7,3.717,6.7,4.039177789,6.7,2.805042794
6.71,2.736,6.71,4.422674512,6.71,2.84479593
6.72,2.717,6.72,4.054195264,6.72,2.834993571
6.73,3.078,6.73,4.196084972,6.73,2.82351305
6.74,3.236,6.74,4.104493445,6.74,2.842404041
6.75,3.263,6.75,4.017893726,6.75,2.842649904
6.76,3.268,6.76,4.361097085,6.76,2.841648872
6.77,3.272,6.77,4.473399898,6.77,2.822313834
6.78,3.297,6.78,4.175909397,6.78,2.809449347
6.79,3.299,6.79,4.016200691,6.79,2.81319886
6.8,3.299,6.8,3.905593935,6.8,2.771229847
6.81,3.28,6.81,4.153192081,6.81,2.785899351
6.82,3.267,6.82,4.18060326,6.82,2.793845314
6.83,3.27,6.83,4.635408826,6.83,2.804153392
6.84,3.226,6.84,3.991797161,6.84,2.838574084
6.85,3.239,6.85,3.747672115,6.85,2.879542439
6.86,3.246,6.86,4.118149277,6.86,2.926455639
6.87,3.256,6.87,4.261584084,6.87,2.981866178
6.88,3.291,6.88,4.488970597,6.88,3.018356569
6.89,3.335,6.89,4.805941302,6.89,2.995319622
6.9,3.386,6.9,4.515721985,6.9,2.940948468
6.91,3.447,6.91,4.643392237,6.91,2.883605048
6.92,3.49,6.92,4.858947808,6.92,2.820824702
6.93,3.472,6.93,4.553548548,6.93,2.763055526
6.94,3.42,6.94,4.234927003,6.94,2.737707108
6.95,3.362,6.95,4.140382174,6.95,2.751692192
6.96,3.295,6.96,4.36445794,6.96,2.772595015
6.97,3.23,6.97,4.022935076,6.97,2.786300923
6.98,3.197,6.98,4.515422608,6.98,2.809526407
6.99,3.205,6.99,4.369201818,6.99,2.827273365
7,3.222,7,4.29939152,7,2.81940928
7.01,3.234,7.01,4.500551557,7.01,2.827738619
7.02,3.258,7.02,4.307314688,7.02,2.825428241
7.03,3.278,7.03,4.187308402,7.03,2.814092903
7.04,3.272,7.04,4.027096934,7.04,2.842508445
7.05,3.282,7.05,3.948104916,7.05,2.848562606
7.06,3.281,7.06,4.374069227,7.06,2.85081348
7.07,3.27,7.07,3.974434946,7.07,2.841285473
7.08,3.299,7.08,4.401562937,7.08,2.834614279
7.09,3.306,7.09,4.15890127,7.09,2.822113526
7.1,3.309,7.1,4.373922929,7.1,2.820863755
7.11,3.3,7.11,4.239809559,7.11,2.835309388
7.12,3.294,7.12,3.904688045,7.12,2.838422332
7.13,3.281,7.13,4.282446717,7.13,2.817952965
7.14,3.279,7.14,4.156461131,7.14,2.834645802
7.15,3.293,7.15,4.377925746,7.15,2.845948806
7.16,3.296,7.16,4.384385539,7.16,2.840783561
7.17,3.275,7.17,4.149441433,7.17,2.852368103
7.18,3.292,7.18,4.395482947,7.18,2.834837756
7.19,3.304,7.19,4.293788378,7.19,2.824086695
7.2,3.299,7.2,4.255987154,7.2,2.81494795
7.21,3.311,7.21,4.200411531,7.21,2.82247494
7.22,3.294,7.22,4.566103026,7.22,2.823339386
7.23,3.283,7.23,4.398497211,7.23,2.818869684
7.24,3.273,7.24,3.330624776,7.24,2.839508612
7.25,3.28,7.25,4.412669369,7.25,2.7766492
7.26,3.28,7.26,4.187201138,7.26,2.756594359
7.27,3.275,7.27,4.435587939,7.27,2.808119158
7.28,3.296,7.28,4.245598313,7.28,2.873646512
7.29,3.232,7.29,3.611153324,7.29,2.929155531
7.3,3.21,7.3,4.812342367,7.3,2.946265478
7.31,3.261,7.31,3.913567411,7.31,2.896032824
7.32,3.328,7.32,4.139132535,7.32,2.822243565
7.33,3.386,7.33,4.02023208,7.33,2.799984008
7.34,3.408,7.34,4.28756116,7.34,2.825705515
7.35,3.362,7.35,4.466120261,7.35,2.826134603
7.36,3.289,7.36,4.631742544,7.36,2.829257908
7.37,3.265,7.37,4.269431044,7.37,2.813788047
7.38,3.288,7.38,4.296973398,7.38,2.814618136
7.39,3.285,7.39,4.719437192,7.39,2.824812567
7.4,3.286,7.4,3.581770079,7.4,2.74228929
7.41,3.27,7.41,3.987820356,7.41,2.557159573
7.42,3.271,7.42,4.014965165,7.42,2.324444796
7.43,3.281,7.43,4.521093509,7.43,2.947339914
7.44,3.196,7.44,5.341462388,7.44,3.990634864
7.45,3.003,7.45,5.18249702,7.45,3.564815966
7.46,2.756,7.46,4.463246294,7.46,2.411706767
7.47,3.382,7.47,3.817754835,7.47,2.164481633
7.48,4.458,7.48,4.110813084,7.48,2.486066707
7.49,4.056,7.49,3.844917916,7.49,2.744621925
7.5,2.9,7.5,4.461556984,7.5,2.823500313
7.51,2.65,7.51,4.350503175,7.51,2.830623518
7.52,2.96,7.52,3.862950498,7.52,2.836089186
7.53,3.183,7.53,4.668489521,7.53,2.844691301
7.54,3.239,7.54,4.119030329,7.54,2.858042538
7.55,3.256,7.55,4.445583098,7.55,2.837483679
7.56,3.279,7.56,3.899429839,7.56,2.828618059
7.57,3.297,7.57,4.476755874,7.57,2.833252846
7.58,3.314,7.58,4.399330396,7.58,2.813947119
7.59,3.295,7.59,5.052836602,7.59,2.783034922
7.6,3.287,7.6,4.510304163,7.6,2.779730099
7.61,3.292,7.61,4.044921594,7.61,2.790924932
7.62,3.272,7.62,4.47668453,7.62,2.795180251
7.63,3.239,7.63,4.161745832,7.63,2.826017483
7.64,3.234,7.64,4.249911068,7.64,2.874515674
7.65,3.244,7.65,4.505016074,7.65,2.919512442
7.66,3.247,7.66,4.492173831,7.66,2.983840574
7.67,3.278,7.67,4.47771512,7.67,3.028802952
7.68,3.329,7.68,4.239359028,7.68,3.009987237
7.69,3.378,7.69,4.080807155,7.69,2.953088023
7.7,3.448,7.7,4.486598018,7.7,2.876687809
7.71,3.5,7.71,4.188724344,7.71,2.795628621
7.72,3.487,7.72,4.326387725,7.72,2.756330258
7.73,3.433,7.73,4.336169474,7.73,2.752010668
7.74,3.356,7.74,4.092304488,7.74,2.765972276
7.75,3.27,7.75,4.046412136,7.75,2.782432163
7.76,3.223,7.76,3.655998367,7.76,2.803911298
7.77,3.211,7.77,3.84389749,7.77,2.808912333
7.78,3.219,7.78,4.738080164,7.78,2.807576897
7.79,3.232,7.79,4.171762226,7.79,2.815211977
7.8,3.253,7.8,4.729963779,7.8,2.811292035
7.81,3.259,7.81,4.40714931,7.81,2.823596181
7.82,3.259,7.82,4.353104036,7.82,2.844455851
7.83,3.268,7.83,4.069081781,7.83,2.842343873
7.84,3.265,7.84,4.25449882,7.84,2.846343095
7.85,3.278,7.85,4.278058334,7.85,2.81900735
7.86,3.3,7.86,4.274499312,7.86,2.830698016
7.87,3.299,7.87,4.638205985,7.87,2.842669658
7.88,3.304,7.88,4.063522146,7.88,2.837754583
7.89,3.277,7.89,3.746361436,7.89,2.840896273
7.9,3.289,7.9,3.638034991,7.9,2.828616375
7.91,3.301,7.91,3.527482215,7.91,2.842281042
7.92,3.296,7.92,4.332728664,7.92,2.847142573
7.93,3.299,7.93,4.767406547,7.93,2.831310367
7.94,3.287,7.94,4.398994734,7.94,2.830588722
7.95,3.301,7.95,3.889540083,7.95,2.823725513
7.96,3.306,7.96,3.71413882,7.96,2.834947731
7.97,3.29,7.97,3.949719849,7.97,2.825589483
7.98,3.289,7.98,4.141217415,7.98,2.825784505
7.99,3.282,7.99,3.79116896,7.99,2.819146083
8,3.293,8,4.30395811,8,2.833894606
8.01,3.283,8.01,4.409948745,8.01,2.824229898
8.02,3.283,8.02,3.91372884,8.02,2.784426394
8.03,3.276,8.03,4.29545506,8.03,2.75937147
8.04,3.291,8.04,4.49840126,8.04,2.830144871
8.05,3.281,8.05,4.003181172,8.05,2.893536301
8.06,3.24,8.06,4.165698028,8.06,2.925682154
8.07,3.213,8.07,4.394579278,8.07,2.932374903
8.08,3.284,8.08,4.598339173,8.08,2.869945538
8.09,3.349,8.09,4.931731426,8.09,2.833490074
8.1,3.384,8.1,4.419776242,8.1,2.805679637
8.11,3.395,8.11,4.368323451,8.11,2.810793329
8.12,3.336,8.12,4.357720962,8.12,2.819082137
8.13,3.3,8.13,4.240833751,8.13,2.817811939
8.14,3.27,8.14,3.924224768,8.14,2.814649557
8.15,3.272,8.15,4.439481489,8.15,2.80881577
8.16,3.277,8.16,4.041378423,8.16,2.809037457
8.17,3.274,8.17,3.415013466,8.17,2.6752381
8.18,3.27,8.18,3.39496773,8.18,2.427553834
8.19,3.264,8.19,3.472949523,8.19,2.359028267
8.2,3.264,8.2,4.697098351,8.2,3.605071457
8.21,3.126,8.21,5.554477815,8.21,3.976938205
8.22,2.867,8.22,4.388738119,8.22,2.978494643
8.23,2.785,8.23,3.699444444,8.23,2.200461521
8.24,4.053,8.24,3.97441725,8.24,2.318683713
8.25,4.458,8.25,4.137146516,8.25,2.65280071
8.26,3.469,8.26,3.774693739,8.26,2.810915625
8.27,2.686,8.27,4.5886796,8.27,2.834963442
8.28,2.805,8.28,3.946933821,8.28,2.832728202
8.29,3.113,8.29,4.325924653,8.29,2.845062613
8.3,3.237,8.3,3.950345912,8.3,2.850682102
8.31,3.255,8.31,4.355806666,8.31,2.840984394
8.32,3.269,8.32,4.684689467,8.32,2.833952813
8.33,3.295,8.33,4.599136021,8.33,2.818726587
8.34,3.306,8.34,3.6518115,8.34,2.814364584
8.35,3.298,8.35,4.342079134,8.35,2.782256395
8.36,3.292,8.36,4.11354367,8.36,2.789757883
8.37,3.277,8.37,3.830316318,8.37,2.796926929
8.38,3.272,8.38,4.170449415,8.38,2.787958417
8.39,3.238,8.39,3.605428925,8.39,2.818017129
8.4,3.244,8.4,3.650929569,8.4,2.841431744
8.41,3.25,8.41,4.562202061,8.41,2.869180611
8.42,3.24,8.42,4.843964967,8.42,2.949732192
8.43,3.27,8.43,4.507823562,8.43,3.018890305
8.44,3.295,8.44,4.44493342,8.44,3.03718953
8.45,3.325,8.45,4.316842313,8.45,2.983541993
8.46,3.41,8.46,4.353617655,8.46,2.908748769
8.47,3.486,8.47,4.15902237,8.47,2.837377273
8.48,3.511,8.48,4.688322321,8.48,2.78476809
8.49,3.462,8.49,4.51526848,8.49,2.761725902
8.5,3.389,8.5,3.697119679,8.5,2.743048352
8.51,3.315,8.51,4.243918912,8.51,2.75611848
8.52,3.256,8.52,3.84432313,8.52,2.786350489
8.53,3.225,8.53,3.841285135,8.53,2.804439728
8.54,3.199,8.54,4.359703556,8.54,2.814359201
8.55,3.207,8.55,4.331820652,8.55,2.812550458
8.56,3.235,8.56,4.284997292,8.56,2.825544479
8.57,3.253,8.57,3.794903214,8.57,2.822374599
8.58,3.264,8.58,4.118840732,8.58,2.837261242
8.59,3.264,8.59,4.461324655,8.59,2.83353814
8.6,3.279,8.6,3.893554332,8.6,2.833786055
8.61,3.277,8.61,3.824986251,8.61,2.840257096
8.62,3.293,8.62,4.031948805,8.62,2.845504842
8.63,3.29,8.63,4.838270696,8.63,2.831589124
8.64,3.291,8.64,4.00753998,8.64,2.817977779
8.65,3.298,8.65,4.403393207,8.65,2.832975635
8.66,3.304,8.66,3.899048288,8.66,2.838031319
8.67,3.29,8.67,4.607737925,8.67,2.847978452
8.68,3.276,8.68,3.994330975,8.68,2.844618416
8.69,3.291,8.69,3.996803975,8.69,2.850671129
8.7,3.296,8.7,4.634901361,8.7,2.836531384
8.71,3.306,8.71,3.858520233,8.71,2.834585689
8.72,3.303,8.72,4.766823331,8.72,2.852418215
8.73,3.31,8.73,4.060069564,8.73,2.818142015
8.74,3.296,8.74,4.630529149,8.74,2.833643283
8.75,3.294,8.75,4.195136426,8.75,2.833753488
8.76,3.312,8.76,4.278533864,8.76,2.813393237
8.77,3.277,8.77,4.523028495,8.77,2.821341135
8.78,3.292,8.78,4.318498467,8.78,2.824227832
8.79,3.292,8.79,4.151979297,8.79,2.819674069
8.8,3.271,8.8,4.489563871,8.8,2.759845634
8.81,3.278,8.81,4.113451647,8.81,2.752677607
8.82,3.281,8.82,4.706700505,8.82,2.814980655
8.83,3.276,8.83,3.982388927,8.83,2.88634476
8.84,3.214,8.84,4.61576524,8.84,2.925408738
8.85,3.205,8.85,3.533999193,8.85,2.937266055
8.86,3.267,8.86,3.783763796,8.86,2.890059009
8.87,3.34,8.87,3.635175063,8.87,2.843824568
8.88,3.382,8.88,4.38168918,8.88,2.820317943
8.89,3.399,8.89,4.156158236,8.89,2.81715216
8.9,3.356,8.9,4.389315596,8.9,2.812689792
8.91,3.311,8.91,4.212457105,8.91,2.809198313
8.92,3.286,8.92,4.240386855,8.92,2.824062872
8.93,3.28,8.93,4.150160355,8.93,2.835897311
8.94,3.272,8.94,4.360150682,8.94,2.832649109
8.95,3.266,8.95,4.551653987,8.95,2.754402045
8.96,3.28,8.96,3.936604096,8.96,2.540157285
8.97,3.292,8.97,3.534853127,8.97,2.30719171
8.98,3.289,8.98,4.57359197,8.98,2.85434147
8.99,3.209,8.99,5.16158255,8.99,3.993855681
9,2.987,9,5.419097509,9,3.641316685
9.01,2.739,9.01,4.224705508,9.01,2.441938056
9.02,3.286,9.02,3.157367442,9.02,2.141885364
9.03,4.458,9.03,4.107079965,9.03,2.470172515
9.04,4.131,9.04,4.421145147,9.04,2.742719929
9.05,2.93,9.05,4.320176515,9.05,2.823692196
9.06,2.627,9.06,4.288666625,9.06,2.837488746
9.07,2.946,9.07,4.238332265,9.07,2.858673667
9.08,3.183,9.08,4.610764645,9.08,2.849719017
9.09,3.239,9.09,4.446380709,9.09,2.833737502
9.1,3.262,9.1,4.622146708,9.1,2.836203153
9.11,3.302,9.11,4.331480422,9.11,2.831419762
9.12,3.303,9.12,4.101964621,9.12,2.836614807
9.13,3.29,9.13,4.319794331,9.13,2.808645342
9.14,3.294,9.14,3.749026078,9.14,2.788895663
9.15,3.29,9.15,3.999021373,9.15,2.793173388
9.16,3.295,9.16,4.297728309,9.16,2.785591921
9.17,3.266,9.17,4.868624115,9.17,2.796874971
9.18,3.245,9.18,4.479321225,9.18,2.816793725
9.19,3.248,9.19,3.9340452,9.19,2.864736584
9.2,3.239,9.2,4.266389879,9.2,2.914290956
9.21,3.249,9.21,4.67186933,9.21,2.975730173
9.22,3.269,9.22,4.421277104,9.22,3.035582472
9.23,3.319,9.23,4.503109004,9.23,3.019266603
9.24,3.372,9.24,4.081681098,9.24,2.95114526
9.25,3.439,9.25,4.349604685,9.25,2.877549695
9.26,3.506,9.26,4.421044863,9.26,2.821487136
9.27,3.496,9.27,4.029024612,9.27,2.780633856
9.28,3.431,9.28,4.159717677,9.28,2.747650063
9.29,3.357,9.29,3.54124122,9.29,2.764553381
9.3,3.297,9.3,4.125094053,9.3,2.775204351
9.31,3.249,9.31,4.156546108,9.31,2.78496405
9.32,3.208,9.32,4.276320174,9.32,2.798024206
9.33,3.219,9.33,4.599425689,9.33,2.79305013
9.34,3.226,9.34,4.055332486,9.34,2.804048002
9.35,3.234,9.35,4.365811658,9.35,2.810045699
9.36,3.247,9.36,4.56255539,9.36,2.829682233
9.37,3.243,9.37,4.412491583,9.37,2.848125717
9.38,3.255,9.38,4.206050443,9.38,2.846456935
9.39,3.262,9.39,4.483940874,9.39,2.840260082
9.4,3.283,9.4,4.086059364,9.4,2.836338976
9.41,3.303,9.41,4.307210301,9.41,2.839891484
9.42,3.303,9.42,4.23313888,9.42,2.84875265
9.43,3.298,9.43,4.292746832,9.43,2.821393657
9.44,3.295,9.44,4.305895733,9.44,2.829671015
9.45,3.299,9.45,4.4766085,9.45,2.841530497
9.46,3.308,9.46,4.05358768,9.46,2.826920878
9.47,3.28,9.47,4.669128366,9.47,2.835340513
9.48,3.288,9.48,4.905721335,9.48,2.851504538
9.49,3.3,9.49,4.26706177,9.49,2.847004227
9.5,3.285,9.5,4.224546162,9.5,2.835172868
9.51,3.293,9.51,3.815763323,9.51,2.828115073
9.52,3.31,9.52,4.438514302,9.52,2.82536301
9.53,3.306,9.53,4.163673497,9.53,2.836780702
9.54,3.294,9.54,4.329312333,9.54,2.839032963
9.55,3.287,9.55,3.844071451,9.55,2.820479393
9.56,3.284,9.56,4.06296383,9.56,2.817812295
9.57,3.295,9.57,3.883661478,9.57,2.828754573
9.58,3.297,9.58,4.146316476,9.58,2.82317271
9.59,3.278,9.59,3.955075917,9.59,2.824620007
9.6,3.275,9.6,4.432125938,9.6,2.764260968
9.61,3.286,9.61,4.322004148,9.61,2.737621605
9.62,3.28,9.62,4.240606018,9.62,2.820980061
9.63,3.281,9.63,4.630257381,9.63,2.900898693
9.64,3.219,9.64,4.27556654,9.64,2.944547357
9.65,3.19,9.65,4.347797351,9.65,2.963766791
9.66,3.273,9.66,3.969016894,9.66,2.892029282
9.67,3.355,9.67,4.209076617,9.67,2.830293607
9.68,3.402,9.68,4.720584318,9.68,2.791980641
9.69,3.427,9.69,4.70823325,9.69,2.802787114
9.7,3.36,9.7,4.416582902,9.7,2.816051066
9.71,3.299,9.71,4.727040656,9.71,2.810674396
9.72,3.258,9.72,4.105871967,9.72,2.822290358
9.73,3.265,9.73,4.219699796,9.73,2.810094803
9.74,3.274,9.74,4.04087679,9.74,2.813010553
9.75,3.266,9.75,4.075635697,9.75,2.72956987
9.76,3.277,9.76,4.013354881,9.76,2.523854753
9.77,3.265,9.77,3.973599158,9.77,2.293281052
9.78,3.268,9.78,4.054814485,9.78,3.117224687
9.79,3.182,9.79,5.391854712,9.79,3.988168687
9.8,2.968,9.8,4.830574283,9.8,3.460855239
9.81,2.722,9.81,3.738127905,9.81,2.285341884
9.82,3.554,9.82,3.62540667,9.82,2.11754135
9.83,4.458,9.83,3.992456112,9.83,2.509490313
9.84,3.952,9.84,4.3156386,9.84,2.76470178
9.85,2.771,9.85,4.008305345,9.85,2.834494621
9.86,2.6,9.86,4.414024179,9.86,2.83393497
9.87,2.976,9.87,4.195416199,9.87,2.849585334
9.88,3.196,9.88,4.565125761,9.88,2.862104939
9.89,3.246,9.89,4.053304601,9.89,2.854874854
9.9,3.259,9.9,4.180680902,9.9,2.847203869
9.91,3.294,9.91,4.522778086,9.91,2.823531391
9.92,3.316,9.92,4.080422712,9.92,2.799529347
9.93,3.312,9.93,4.780806047,9.93,2.806974408
9.94,3.306,9.94,4.369101499,9.94,2.802477313
9.95,3.283,9.95,3.867727499,9.95,2.793121764
9.96,3.258,9.96,4.108788915,9.96,2.765931524
9.97,3.264,9.97,4.100017161,9.97,2.794263122
9.98,3.258,9.98,4.792528447,9.98,2.834624556
9.99,3.247,9.99,4.416967748,9.99,2.892154012
10,3.218,10,3.840826542,10,2.935071305
10.01,3.246,10.01,4.68776062,10.01,2.984617846
10.02,3.287,10.02,4.371977317,10.02,3.037272131
10.03,3.347,10.03,4.263723236,10.03,3.029121585
10.04,3.394,10.04,4.473533166,10.04,2.971168273
10.05,3.45,10.05,4.603478572,10.05,2.874242499
10.06,3.51,10.06,3.926966011,10.06,2.780626129
10.07,3.508,10.07,4.017964178,10.07,2.73810412
10.08,3.453,10.08,3.845504431,10.08,2.737786117
10.09,3.355,10.09,4.029699789,10.09,2.765362342
10.1,3.256,10.1,4.881007104,10.1,2.785741004
10.11,3.205,10.11,4.066115721,10.11,2.798026416
10.12,3.196,10.12,4.143237514,10.12,2.817303151
10.13,3.217,10.13,3.995746695,10.13,2.809493693
10.14,3.234,10.14,4.323770606,10.14,2.817989882
10.15,3.246,10.15,4.476464747,10.15,2.815986707
10.16,3.267,10.16,4.363059042,10.16,2.802679082
10.17,3.261,10.17,3.945794624,10.17,2.831150165
10.18,3.271,10.18,4.481312922,10.18,2.842120797
10.19,3.27,10.19,4.489351301,10.19,2.853038171
10.2,3.257,10.2,3.845295397,10.2,2.841232818
10.21,3.286,10.21,3.902713487,10.21,2.829366975
10.22,3.298,10.22,4.492395113,10.22,2.84389146
10.23,3.31,10.23,4.410130018,10.23,2.84472399
10.24,3.299,10.24,4.094367522,10.24,2.824477218
10.25,3.288,10.25,4.659114693,10.25,2.822005398
10.26,3.303,10.26,4.432486472,10.26,2.830002853
10.27,3.304,10.27,4.332211768,10.27,2.852781223
10.28,3.283,10.28,3.922282521,10.28,2.850645827
10.29,3.28,10.29,4.013050811,10.29,2.832424104
10.3,3.288,10.3,4.352127274,10.3,2.834059895
10.31,3.311,10.31,4.24432049,10.31,2.821279517
10.32,3.309,10.32,4.370507723,10.32,2.824086528
10.33,3.291,10.33,4.210255947,10.33,2.828727724
10.34,3.293,10.34,4.090165194,10.34,2.816228958
10.35,3.28,10.35,3.683219678,10.35,2.831368861
10.36,3.282,10.36,3.914675428,10.36,2.826285272
10.37,3.286,10.37,4.398013168,10.37,2.846673676
10.38,3.273,10.38,4.440398488,10.38,2.78492708
10.39,3.288,10.39,4.502246569,10.39,2.737204534
10.4,3.283,10.4,4.025115909,10.4,2.800173119
10.41,3.304,10.41,4.54894666,10.41,2.865172779
10.42,3.241,10.42,4.162682125,10.42,2.915322866
10.43,3.191,10.43,4.048961458,10.43,2.961295922
10.44,3.253,10.44,4.812106859,10.44,2.914034065
10.45,3.319,10.45,4.665477062,10.45,2.832717898
10.46,3.371,10.46,4.193882107,10.46,2.815734503
10.47,3.422,10.47,4.428972896,10.47,2.809452867
10.48,3.38,10.48,4.060152469,10.48,2.803881924
10.49,3.3,10.49,4.394517597,10.49,2.810061241
10.5,3.282,10.5,4.246494948,10.5,2.83628573
10.51,3.273,10.51,4.400465101,10.51,2.818510912
10.52,3.263,10.52,4.517033044,10.52,2.821400719
10.53,3.266,10.53,4.239587414,10.53,2.765595078
10.54,3.292,10.54,4.197627036,10.54,2.591877143
10.55,3.274,10.55,3.860304814,10.55,2.367498667
10.56,3.277,10.56,4.380605587,10.56,2.722820249
10.57,3.22,10.57,4.974414879,10.57,3.979405145
10.58,3.04,10.58,5.123320795,10.58,3.806464355
10.59,2.802,10.59,4.414658631,10.59,2.578601303
10.6,3.154,10.6,3.754883575,10.6,2.088713913
10.61,4.443,10.61,3.598850607,10.61,2.376776032
10.62,4.3,10.62,4.364218302,10.62,2.696074859
10.63,3.073,10.63,3.686115013,10.63,2.832535983
10.64,2.577,10.64,4.163559106,10.64,2.856918802
10.65,2.857,10.65,4.848422121,10.65,2.854912285
10.66,3.14,10.66,4.597507409,10.66,2.838808324
10.67,3.247,10.67,4.405435145,10.67,2.858900777
10.68,3.277,10.68,3.924555628,10.68,2.848229009
10.69,3.295,10.69,4.199961755,10.69,2.812394716
10.7,3.291,10.7,4.686798651,10.7,2.81208762
10.71,3.316,10.71,4.13310411,10.71,2.8000297
10.72,3.307,10.72,4.298919254,10.72,2.805561217
10.73,3.271,10.73,4.410879904,10.73,2.777678805
10.74,3.27,10.74,4.228711709,10.74,2.782679525
10.75,3.257,10.75,3.875481672,10.75,2.797263937
10.76,3.261,10.76,4.997625402,10.76,2.829569974
10.77,3.231,10.77,4.702682478,10.77,2.873711294
10.78,3.235,10.78,4.190830682,10.78,2.913791587
10.79,3.249,10.79,4.252584443,10.79,2.958590968
10.8,3.282,10.8,4.035986692,10.8,3.021830348
10.81,3.328,10.81,4.309178781,10.81,3.035431253
10.82,3.372,10.82,4.244360777,10.82,2.988506289
10.83,3.422,10.83,4.47553457,10.83,2.880803313
10.84,3.492,10.84,4.504089285,10.84,2.800822055
10.85,3.512,10.85,4.233820299,10.85,2.771795522
10.86,3.469,10.86,3.946106257,10.86,2.74433883
10.87,3.361,10.87,3.942339686,10.87,2.751693739
10.88,3.277,10.88,4.185931721,10.88,2.771596802
10.89,3.241,10.89,4.171914496,10.89,2.794548378
10.9,3.205,10.9,4.721936902,10.9,2.805192156
10.91,3.205,10.91,4.327084514,10.91,2.805774269
10.92,3.221,10.92,3.92535618,10.92,2.825741673
10.93,3.243,10.93,4.26626961,10.93,2.83290417
10.94,3.254,10.94,4.430836477,10.94,2.828763716
10.95,3.256,10.95,3.914120277,10.95,2.84348333
10.96,3.278,10.96,4.60247247,10.96,2.827674663
10.97,3.287,10.97,4.775414402,10.97,2.835256476
10.98,3.284,10.98,3.817149403,10.98,2.831200387
10.99,3.3,10.99,4.428304323,10.99,2.815505366
11,3.285,11,4.466943121,11,2.8327839
11.01,3.293,11.01,3.996317501,11.01,2.834588683
11.02,3.289,11.02,3.950895987,11.02,2.834618234
11.03,3.273,11.03,4.766048302,11.03,2.840369013
11.04,3.29,11.04,4.556492386,11.04,2.846477304
11.05,3.292,11.05,4.204447096,11.05,2.847032581
11.06,3.292,11.06,4.24124492,11.06,2.833032684
11.07,3.298,11.07,3.962481847,11.07,2.848586106
11.08,3.305,11.08,4.626673258,11.08,2.829835921
11.09,3.306,11.09,3.832063129,11.09,2.823475827
11.1,3.292,11.1,4.124657435,11.1,2.836781641
11.11,3.308,11.11,4.164744157,11.11,2.826003542
11.12,3.289,11.12,3.798557386,11.12,2.823756812
11.13,3.282,11.13,3.760399551,11.13,2.818145955
11.14,3.295,11.14,4.174721195,11.14,2.769730183
11.15,3.284,11.15,4.388121244,11.15,2.763898581
11.16,3.281,11.16,4.513800638,11.16,2.815341884
11.17,3.275,11.17,4.110283437,11.17,2.880844268
11.18,3.225,11.18,4.306880152,11.18,2.917100976
11.19,3.217,11.19,4.46425374,11.19,2.917820546
11.2,3.268,11.2,4.117483207,11.2,2.885114885
11.21,3.335,11.21,4.723717949,11.21,2.842964831
11.22,3.374,11.22,4.308839715,11.22,2.823264952
11.23,3.379,11.23,4.321004729,11.23,2.817877723
11.24,3.35,11.24,4.192090633,11.24,2.803135642
11.25,3.309,11.25,3.793467906,11.25,2.805587418
11.26,3.288,11.26,4.549313278,11.26,2.809813158
11.27,3.28,11.27,3.759976586,11.27,2.822120765
11.28,3.262,11.28,4.012255897,11.28,2.810540582
11.29,3.262,11.29,3.658039363,11.29,2.715183014
11.3,3.265,11.3,3.740549165,11.3,2.509772718
11.31,3.277,11.31,3.526375833,11.31,2.344416285
11.32,3.265,11.32,4.579424558,11.32,3.260581931
11.33,3.167,11.33,5.555180615,11.33,3.983450859
11.34,2.953,11.34,4.705046632,11.34,3.295304284
11.35,2.774,11.35,3.886936692,11.35,2.286294126
11.36,3.702,11.36,3.642544881,11.36,2.198628138
11.37,4.458,11.37,3.981296232,11.37,2.558390364
11.38,3.787,11.38,3.952362693,11.38,2.771447586
11.39,2.773,11.39,3.75754857,11.39,2.832571339
11.4,2.683,11.4,4.183917896,11.4,2.834919257
11.41,3.024,11.41,4.451951512,11.41,2.83135648
11.42,3.202,11.42,4.314547556,11.42,2.853465254
11.43,3.248,11.43,4.524110955,11.43,2.868040291
11.44,3.264,11.44,4.564685408,11.44,2.846454583
11.45,3.277,11.45,4.146956356,11.45,2.833645201
11.46,3.307,11.46,4.091348871,11.46,2.811807006
11.47,3.325,11.47,4.15280112,11.47,2.798223025
11.48,3.305,11.48,3.644983092,11.48,2.791393728
11.49,3.293,11.49,4.086235935,11.49,2.776481057
11.5,3.271,11.5,4.397089984,11.5,2.784068314
11.51,3.256,11.51,4.01998923,11.51,2.804487087
11.52,3.247,11.52,4.586515213,11.52,2.84143275
11.53,3.23,11.53,4.382026163,11.53,2.882905499
11.54,3.236,11.54,4.461692295,11.54,2.936290033
11.55,3.256,11.55,4.8011581,11.55,3.014475795
11.56,3.294,11.56,4.142711497,11.56,3.025716926
11.57,3.338,11.57,4.899561368,11.57,2.978207994
11.58,3.396,11.58,3.948521752,11.58,2.918528543
11.59,3.481,11.59,4.475449716,11.59,2.851378418
11.6,3.499,11.6,4.384055976,11.6,2.804075128
11.61,3.456,11.61,4.087007913,11.61,2.770420278
11.62,3.398,11.62,4.532339459,11.62,2.76296186
11.63,3.329,11.63,4.208470548,11.63,2.766920171
11.64,3.276,11.64,4.811492346,11.64,2.784541388
11.65,3.235,11.65,4.231234193,11.65,2.796381345
11.66,3.221,11.66,4.126875778,11.66,2.817465963
11.67,3.22,11.67,4.132621932,11.67,2.825881411
11.68,3.235,11.68,4.030185783,11.68,2.8339892
11.69,3.246,11.69,4.783567637,11.69,2.82084762
11.7,3.268,11.7,4.499977584,11.7,2.812232809
11.71,3.278,11.71,4.41807323,11.71,2.808341841
11.72,3.288,11.72,4.263049326,11.72,2.817479818
11.73,3.276,11.73,4.254279224,11.73,2.845119999
11.74,3.268,11.74,4.643997592,11.74,2.83859412
11.75,3.264,11.75,4.409219177,11.75,2.83881612
11.76,3.273,11.76,4.339873893,11.76,2.836951666
11.77,3.301,11.77,4.652587178,11.77,2.843142256
11.78,3.295,11.78,4.523806362,11.78,2.842143138
11.79,3.296,11.79,4.677875996,11.79,2.832254561
11.8,3.295,11.8,3.889711017,11.8,2.847947911
11.81,3.302,11.81,4.454677552,11.81,2.81942049
11.82,3.301,11.82,4.780307712,11.82,2.824948716
11.83,3.291,11.83,4.357947226,11.83,2.861419781
11.84,3.307,11.84,4.239439302,11.84,2.83630983
11.85,3.278,11.85,4.30314036,11.85,2.821091786
11.86,3.283,11.86,4.148358758,11.86,2.793839297
11.87,3.32,11.87,4.003781244,11.87,2.744171052
11.88,3.295,11.88,4.211154707,11.88,2.761147132
11.89,3.279,11.89,4.36116597,11.89,2.843148462
11.9,3.251,11.9,4.162919481,11.9,2.902015723
11.91,3.199,11.91,4.335651181,11.91,2.927299154
11.92,3.213,11.92,4.731217787,11.92,2.920180106
11.93,3.295,11.93,4.490175898,11.93,2.871693257
11.94,3.356,11.94,4.176211446,11.94,2.828683666
11.95,3.385,11.95,4.201048729,11.95,2.812874521
11.96,3.383,11.96,4.390935412,11.96,2.811017185
11.97,3.338,11.97,4.060203395,11.97,2.829665116
11.98,3.295,11.98,4.637914234,11.98,2.832033846
11.99,3.277,11.99,4.153507164,11.99,2.821509453
12,3.272,12,4.276511218,12,2.806898362
12.01,3.288,12.01,4.793441397,12.01,2.791590961
12.02,3.289,12.02,4.107123539,12.02,2.64495866
12.03,3.278,12.03,3.700291691,12.03,2.415080866
12.04,3.263,12.04,4.156317074,12.04,2.498829551
12.05,3.247,12.05,5.037922259,12.05,3.669935752
12.06,3.095,12.06,5.476840054,12.06,3.905252376
12.07,2.853,12.07,4.284660225,12.07,2.866045336
12.08,2.927,12.08,3.633561771,12.08,2.237516929
12.09,4.122,12.09,3.638736374,12.09,2.375149441
12.1,4.389,12.1,4.057849913,12.1,2.660069237
12.11,3.357,12.11,4.599513132,12.11,2.785013148
12.12,2.725,12.12,3.81224689,12.12,2.822231626
12.13,2.861,12.13,4.214210367,12.13,2.835969572
12.14,3.118,12.14,3.720420432,12.14,2.830314603
12.15,3.21,12.15,4.539999677,12.15,2.85110338
12.16,3.244,12.16,4.526223778,12.16,2.847485446
12.17,3.273,12.17,4.358221708,12.17,2.853591588
12.18,3.279,12.18,4.132939236,12.18,2.835006216
12.19,3.305,12.19,4.464784452,12.19,2.806392442
12.2,3.304,12.2,4.523254532,12.2,2.790003599
12.21,3.312,12.21,4.449966227,12.21,2.783809567
12.22,3.294,12.22,4.400535019,12.22,2.79459171
12.23,3.265,12.23,3.745288681,12.23,2.791014172
12.24,3.247,12.24,4.250045986,12.24,2.813988619
12.25,3.239,12.25,4.011003665,12.25,2.857209721
12.26,3.248,12.26,4.260367356,12.26,2.913540095
12.27,3.243,12.27,4.852621107,12.27,2.967481617
12.28,3.266,12.28,4.634120106,12.28,3.013806566
12.29,3.311,12.29,4.498973823,12.29,3.007768169
12.3,3.371,12.3,4.626016858,12.3,2.967978705
12.31,3.43,12.31,4.403880373,12.31,2.875441866
12.32,3.483,12.32,4.242818061,12.32,2.808519704
12.33,3.483,12.33,4.323294973,12.33,2.778106753
12.34,3.447,12.34,3.918399586,12.34,2.758453104
12.35,3.354,12.35,4.211211999,12.35,2.756055311
12.36,3.283,12.36,4.255411625,12.36,2.767845707
12.37,3.246,12.37,4.308634616,12.37,2.794935428
12.38,3.219,12.38,4.245749979,12.38,2.816383751
12.39,3.21,12.39,4.665386126,12.39,2.810218117
12.4,3.218,12.4,4.308417616,12.4,2.816575743
12.41,3.244,12.41,4.373557858,12.41,2.824875586
12.42,3.266,12.42,4.568187783,12.42,2.843344304
12.43,3.261,12.43,4.433709303,12.43,2.827845161
12.44,3.269,12.44,4.307193919,12.44,2.820398951
12.45,3.279,12.45,4.326640797,12.45,2.827951213
12.46,3.299,12.46,4.209387194,12.46,2.824866326
12.47,3.284,12.47,4.624881297,12.47,2.833118656
12.48,3.277,12.48,3.546662069,12.48,2.850451748
12.49,3.285,12.49,4.525340745,12.49,2.842784569
12.5,3.282,12.5,4.110567727,12.5,2.841367694
12.51,3.29,12.51,4.125969851,12.51,2.835032097
12.52,3.308,12.52,4.408919505,12.52,2.838807612
12.53,3.301,12.53,4.113769341,12.53,2.830336865
12.54,3.3,12.54,4.646025857,12.54,2.823865438
12.55,3.294,12.55,3.908850379,12.55,2.83019905
12.56,3.298,12.56,4.599333014,12.56,2.831338057
12.57,3.289,12.57,4.408862354,12.57,2.825756781
12.58,3.282,12.58,4.227563522,12.58,2.819118674
12.59,3.288,12.59,4.67633185,12.59,2.800812885
12.6,3.289,12.6,4.491103641,12.6,2.775425229
12.61,3.283,12.61,4.012237535,12.61,2.791648053
12.62,3.276,12.62,4.588614081,12.62,2.860758979
12.63,3.257,12.63,4.270483254,12.63,2.89954043
12.64,3.23,12.64,3.957440172,12.64,2.919153623
12.65,3.245,12.65,4.24316853,12.65,2.917924001
12.66,3.315,12.66,4.057834709,12.66,2.857718716
12.67,3.356,12.67,4.591494764,12.67,2.833156071
12.68,3.379,12.68,4.372834899,12.68,2.81431991
12.69,3.382,12.69,3.85788374,12.69,2.816157076
12.7,3.324,12.7,4.153223066,12.7,2.812278686
12.71,3.299,12.71,4.20861364,12.71,2.807950704
12.72,3.278,12.72,4.330442896,12.72,2.812814707
12.73,3.277,12.73,4.585995328,12.73,2.795593906
12.74,3.27,12.74,3.743633342,12.74,2.62621325
12.75,3.264,12.75,4.244417258,12.75,2.373028523
12.76,3.268,12.76,3.712152418,12.76,2.492606376
12.77,3.25,12.77,5.234672465,12.77,3.787543215
12.78,3.075,12.78,4.633314847,12.78,3.840762081
12.79,2.809,12.79,4.338364052,12.79,2.775583057
12.8,2.919,12.8,3.722658032,12.8,2.241730572
12.81,4.241,12.81,3.595209057,12.81,2.432523971
12.82,4.324,12.82,4.150554315,12.82,2.7279167
12.83,3.264,12.83,4.064309174,12.83,2.81516436
12.84,2.728,12.84,3.769288772,12.84,2.837226219
12.85,2.919,12.85,4.152994985,12.85,2.825206567
12.86,3.185,12.86,4.133419131,12.86,2.822302705
12.87,3.242,12.87,4.552307505,12.87,2.834403438
12.88,3.264,12.88,4.250750539,12.88,2.842816436
12.89,3.267,12.89,3.852553829,12.89,2.838926771
12.9,3.274,12.9,4.079547168,12.9,2.812842298
12.91,3.289,12.91,4.67849632,12.91,2.804200657
12.92,3.299,12.92,4.098152635,12.92,2.801088453
12.93,3.296,12.93,4.150431264,12.93,2.783786014
12.94,3.27,12.94,4.516115506,12.94,2.784429205
12.95,3.261,12.95,4.44993184,12.95,2.794097123
12.96,3.257,12.96,4.093052171,12.96,2.810070787
12.97,3.238,12.97,4.833687931,12.97,2.846877759
12.98,3.237,12.98,4.363456188,12.98,2.891820054
12.99,3.246,12.99,4.384341252,12.99,2.979147549
13,3.262,13,4.655126419,13,3.046640109
13.01,3.3,13.01,4.582240724,13.01,3.046381255
13.02,3.348,13.02,4.268276768,13.02,2.984758484
13.03,3.441,13.03,4.400103023,13.03,2.884242991
13.04,3.516,13.04,4.468814439,13.04,2.811456239
13.05,3.523,13.05,4.633070708,13.05,2.756517074
13.06,3.466,13.06,4.463632822,13.06,2.739505616
13.07,3.366,13.07,4.305679095,13.07,2.76635817
13.08,3.289,13.08,4.441028963,13.08,2.775290619
13.09,3.226,13.09,3.744292291,13.09,2.788745604
13.1,3.2,13.1,3.953231698,13.1,2.799136376
13.11,3.22,13.11,4.197828875,13.11,2.810438243
13.12,3.225,13.12,3.922108605,13.12,2.817075286
13.13,3.237,13.13,4.245987057,13.13,2.81876711
13.14,3.248,13.14,4.363609049,13.14,2.834319451
13.15,3.261,13.15,4.438691569,13.15,2.834150408
13.16,3.269,13.16,3.814452932,13.16,2.839176563
13.17,3.272,13.17,4.349581915,13.17,2.847174544
13.18,3.289,13.18,4.634253065,13.18,2.834589234
13.19,3.29,13.19,4.731243182,13.19,2.83350524
13.2,3.296,13.2,4.414309664,13.2,2.827615057
13.21,3.305,13.21,4.421442399,13.21,2.819142754
13.22,3.293,13.22,4.449421081,13.22,2.831588458
13.23,3.292,13.23,4.327189933,13.23,2.851143922
13.24,3.286,13.24,4.1201881,13.24,2.851645565
13.25,3.277,13.25,4.511193511,13.25,2.832507803
13.26,3.289,13.26,3.892452086,13.26,2.836976449
13.27,3.309,13.27,4.778197484,13.27,2.838723485
13.28,3.31,13.28,4.180570806,13.28,2.823475413
13.29,3.291,13.29,4.069681573,13.29,2.828144144
13.3,3.296,13.3,4.159574486,13.3,2.808838562
13.31,3.298,13.31,4.289037721,13.31,2.808700465
13.32,3.282,13.32,4.079905368,13.32,2.81934097
13.33,3.286,13.33,4.471850973,13.33,2.773843839
13.34,3.266,13.34,3.739608188,13.34,2.772540964
13.35,3.265,13.35,4.428961403,13.35,2.837843331
13.36,3.275,13.36,4.461341251,13.36,2.90517652
13.37,3.228,13.37,4.283591802,13.37,2.938765841
13.38,3.225,13.38,4.005092811,13.38,2.916540011
13.39,3.291,13.39,4.3410036,13.39,2.85291639
13.4,3.361,13.4,5.153170243,13.4,2.833653848
13.41,3.398,13.41,4.198877175,13.41,2.831455524
13.42,3.38,13.42,4.711207488,13.42,2.826518556
13.43,3.319,13.43,4.732030793,13.43,2.811584951
13.44,3.3,13.44,4.40797005,13.44,2.808088044
13.45,3.296,13.45,3.920849293,13.45,2.815866701
13.46,3.288,13.46,4.111479401,13.46,2.807786287
13.47,3.27,13.47,4.459670986,13.47,2.822094169
13.48,3.265,13.48,3.600340056,13.48,2.725653955
13.49,3.272,13.49,3.91675627,13.49,2.503495298
13.5,3.263,13.5,3.907214956,13.5,2.26072629
13.51,3.277,13.51,4.402754983,13.51,3.096252139
13.52,3.178,13.52,5.727473256,13.52,3.990448475
13.53,2.947,13.53,4.841751556,13.53,3.419279284
13.54,2.688,13.54,3.450639467,13.54,2.378594458
13.55,3.531,13.55,3.554209807,13.55,2.253928752
13.56,4.458,13.56,4.095985985,13.56,2.566464397
13.57,3.907,13.57,4.104408544,13.57,2.776145285
13.58,2.864,13.58,4.096516596,13.58,2.81497118
13.59,2.741,13.59,3.864470906,13.59,2.827993141
13.6,3.04,13.6,4.100081215,13.6,2.82910326
13.61,3.215,13.61,4.158168893,13.61,2.832270781
13.62,3.235,13.62,4.635065979,13.62,2.827405174
13.63,3.259,13.63,4.367125319,13.63,2.834844578
13.64,3.275,13.64,4.297039804,13.64,2.848535455
13.65,3.285,13.65,4.159554881,13.65,2.829201772
13.66,3.282,13.66,4.073057535,13.66,2.79511941
13.67,3.291,13.67,3.918498586,13.67,2.790116972
13.68,3.306,13.68,4.376966391,13.68,2.761228578
13.69,3.287,13.69,3.607198454,13.69,2.762789293
13.7,3.252,13.7,4.356559748,13.7,2.813431707
13.71,3.246,13.71,4.068622577,13.71,2.834489982
13.72,3.215,13.72,4.530780623,13.72,2.860604627
13.73,3.214,13.73,4.533426345,13.73,2.921043081
13.74,3.264,13.74,4.672347018,13.74,3.018530577
13.75,3.286,13.75,4.272943724,13.75,3.052274449
13.76,3.314,13.76,3.838607301,13.76,3.011600464
13.77,3.379,13.77,4.224089774,13.77,2.946418699
13.78,3.484,13.78,4.485541904,13.78,2.863375637
13.79,3.525,13.79,4.154136801,13.79,2.799207892
13.8,3.49,13.8,4.481777203,13.8,2.751747114
13.81,3.428,13.81,3.761945116,13.81,2.738901687
13.82,3.344,13.82,4.224227621,13.82,2.760890496
13.83,3.274,13.83,4.273027594,13.83,2.777182171
13.84,3.218,13.84,4.362063082,13.84,2.810607234
13.85,3.197,13.85,3.887812035,13.85,2.813359135
13.86,3.213,13.86,4.093430329,13.86,2.822216529
13.87,3.226,13.87,4.245478307,13.87,2.833156195
13.88,3.259,13.88,4.353195549,13.88,2.81590188
13.89,3.263,13.89,3.851734801,13.89,2.814594821
13.9,3.274,13.9,4.562942692,13.9,2.824119657
13.91,3.287,13.91,4.604729271,13.91,2.821035859
13.92,3.271,13.92,4.361660384,13.92,2.834926531
13.93,3.27,13.93,3.595102897,13.93,2.840203578
13.94,3.28,13.94,4.248053796,13.94,2.849174226
13.95,3.277,13.95,4.123878376,13.95,2.827035658
13.96,3.291,13.96,4.287774684,13.96,2.829727336
13.97,3.297,13.97,4.26362244,13.97,2.853141489
13.98,3.307,13.98,4.339198024,13.98,2.830365027
13.99,3.285,13.99,4.423917649,13.99,2.821145923
14,3.288,14,4.061450924,14,2.833948676
14.01,3.312,14.01,3.878177983,14.01,2.845502156
14.02,3.289,14.02,4.332907368,14.02,2.836978868
14.03,3.279,14.03,4.737866642,14.03,2.832923843
14.04,3.292,14.04,4.624592548,14.04,2.850087008
14.05,3.304,14.05,3.892813269,14.05,2.841836426
14.06,3.295,14.06,4.186321616,14.06,2.812755788
14.07,3.291,14.07,3.93092043,14.07,2.824115456
14.08,3.309,14.08,4.162122494,14.08,2.83311324
14.09,3.301,14.09,4.249778117,14.09,2.81806178
14.1,3.271,14.1,4.144962309,14.1,2.757539837
14.11,3.282,14.11,4.107133224,14.11,2.744593249
14.12,3.291,14.12,4.526528022,14.12,2.811118281
14.13,3.275,14.13,4.265364818,14.13,2.892594794
14.14,3.212,14.14,4.849047344,14.14,2.940214641
14.15,3.197,14.15,4.638576795,14.15,2.932156703
14.16,3.263,14.16,4.484298799,14.16,2.882920463
14.17,3.346,14.17,4.330308771,14.17,2.836767251
14.18,3.397,14.18,4.866389303,14.18,2.816538499
14.19,3.394,14.19,4.262513133,14.19,2.820708818
14.2,3.349,14.2,4.239852437,14.2,2.831579489
14.21,3.304,14.21,4.672792718,14.21,2.812782941
14.22,3.282,14.22,4.358443006,14.22,2.811785927
14.23,3.283,14.23,4.588440516,14.23,2.808285349
14.24,3.291,14.24,4.521135366,14.24,2.832145912
14.25,3.27,14.25,4.514367273,14.25,2.745708349
14.26,3.268,14.26,3.666309935,14.26,2.525050597
14.27,3.264,14.27,3.42579452,14.27,2.298057228
14.28,3.288,14.28,4.494173582,14.28,2.874869285
14.29,3.199,14.29,5.292933721,14.29,3.994358566
14.3,2.97,14.3,4.932884552,14.3,3.617237586
14.31,2.728,14.31,3.840176468,14.31,2.474464405
14.32,3.306,14.32,3.204280279,14.32,2.185825408
14.33,4.458,14.33,4.130778881,14.33,2.49006274
14.34,4.106,14.34,4.134534314,14.34,2.75616497
14.35,2.963,14.35,3.988310457,14.35,2.833072476
14.36,2.673,14.36,4.342550252,14.36,2.826036485
14.37,2.968,14.37,4.696145045,14.37,2.836114534
14.38,3.199,14.38,3.948259109,14.38,2.849771134
14.39,3.252,14.39,4.004777867,14.39,2.841041617
14.4,3.253,14.4,4.45605492,14.4,2.840761552
14.41,3.28,14.41,4.053382749,14.41,2.814229212
14.42,3.303,14.42,3.83395794,14.42,2.79403254
14.43,3.297,14.43,3.877368111,14.43,2.809088192
14.44,3.298,14.44,4.991295568,14.44,2.804145932
14.45,3.272,14.45,4.294659538,14.45,2.790651773
14.46,3.251,14.46,4.231584325,14.46,2.785598305
14.47,3.265,14.47,4.748114718,14.47,2.798596201
14.48,3.259,14.48,4.95186832,14.48,2.825236121
14.49,3.244,14.49,4.794832645,14.49,2.863598453
14.5,3.238,14.5,3.97958039,14.5,2.9101522
14.51,3.251,14.51,4.099979216,14.51,2.975562512
14.52,3.278,14.52,4.973296797,14.52,3.04324761
14.53,3.318,14.53,4.633308629,14.53,3.022100326
14.54,3.368,14.54,4.088237233,14.54,2.962617597
14.55,3.439,14.55,3.95742525,14.55,2.880799027
14.56,3.514,14.56,4.196931268,14.56,2.81004177
14.57,3.499,14.57,4.072975111,14.57,2.7697162
14.58,3.443,14.58,4.600926789,14.58,2.744898083
14.59,3.361,14.59,4.630365615,14.59,2.752498582
14.6,3.286,14.6,4.121854846,14.6,2.784039674
14.61,3.238,14.61,4.344768242,14.61,2.804937365
14.62,3.205,14.62,4.548847374,14.62,2.800608978
14.63,3.206,14.63,3.988011776,14.63,2.812967231
14.64,3.234,14.64,4.244581323,14.64,2.823989087
14.65,3.254,14.65,4.470608099,14.65,2.824736524
14.66,3.25,14.66,4.712594552,14.66,2.825013785
14.67,3.264,14.67,3.907712254,14.67,2.828066201
14.68,3.277,14.68,4.08499007,14.68,2.826536476
14.69,3.279,14.69,3.850898522,14.69,2.822480704
14.7,3.28,14.7,4.01600577,14.7,2.823452412
14.71,3.284,14.71,4.315641609,14.71,2.838034665
14.72,3.283,14.72,4.331806317,14.72,2.843562768
14.73,3.279,14.73,4.20908029,14.73,2.832369288
14.74,3.28,14.74,4.507836398,14.74,2.841784193
14.75,3.295,14.75,4.656473074,14.75,2.846087039
14.76,3.301,14.76,3.812456556,14.76,2.839003976
14.77,3.29,14.77,4.138028637,14.77,2.840060258
14.78,3.3,14.78,3.992215886,14.78,2.831058818
14.79,3.305,14.79,4.226230075,14.79,2.838141611
14.8,3.298,14.8,4.326071823,14.8,2.838364829
14.81,3.299,14.81,4.420344223,14.81,2.839365314
14.82,3.29,14.82,4.074934127,14.82,2.838421683
14.83,3.297,14.83,4.270940176,14.83,2.82558785
14.84,3.297,14.84,4.314609089,14.84,2.823032236
14.85,3.298,14.85,4.43656794,14.85,2.825420969
14.86,3.297,14.86,4.561201974,14.86,2.821950045
14.87,3.284,14.87,4.544169285,14.87,2.827313016
14.88,3.281,14.88,4.867805227,14.88,2.817591514
14.89,3.283,14.89,3.645260831,14.89,2.782787311
14.9,3.279,14.9,4.110366483,14.9,2.762649217
14.91,3.284,14.91,4.314759093,14.91,2.791620233
14.92,3.274,14.92,4.067606716,14.92,2.874399077
14.93,3.238,14.93,4.531897232,14.93,2.913738205
14.94,3.216,14.94,4.583777031,14.94,2.931460845
14.95,3.244,14.95,4.338814806,14.95,2.904201546
14.96,3.328,14.96,3.753336808,14.96,2.840438574
14.97,3.37,14.97,4.23898813,14.97,2.841985941
14.98,3.392,14.98,4.363062103,14.98,2.827179709
14.99,3.369,14.99,4.116586521,14.99,2.807632891
15,3.307,15,3.830681354,15,2.809474927
15.01,3.308,15.01,5.101882813,15.01,2.815448105
15.02,3.291,15.02,4.173577403,15.02,2.834923786
15.03,3.268,15.03,4.542089657,15.03,2.808678376
15.04,3.267,15.04,4.356301195,15.04,2.765040799
15.05,3.272,15.05,3.588802445,15.05,2.595267513
15.06,3.291,15.06,3.877121487,15.06,2.336220717
15.07,3.264,15.07,4.544711176,15.07,2.716238917
15.08,3.219,15.08,6.009221675,15.08,3.95032293
15.09,3.043,15.09,5.281807029,15.09,3.798633156
15.1,2.77,15.1,3.825623908,15.1,2.610994118
15.11,3.146,15.11,3.952686046,15.11,2.128104956
15.12,4.412,15.12,3.995590073,15.12,2.405113662
15.13,4.29,15.13,4.564316036,15.13,2.715906578
15.14,3.104,15.14,4.056746439,15.14,2.832000777
15.15,2.617,15.15,4.218470447,15.15,2.828967386
15.16,2.887,15.16,4.150979699,15.16,2.82976814
15.17,3.163,15.17,4.529245129,15.17,2.851165265
15.18,3.25,15.18,4.201535533,15.18,2.831709128
15.19,3.251,15.19,4.008319499,15.19,2.831651796
15.2,3.27,15.2,4.058771625,15.2,2.851034672
15.21,3.303,15.21,4.644062949,15.21,2.842170508
15.22,3.287,15.22,4.24527451,15.22,2.797507795
15.23,3.288,15.23,4.107588848,15.23,2.785756231
15.24,3.309,15.24,4.442779029,15.24,2.788003729
15.25,3.301,15.25,3.665386526,15.25,2.780119866
15.26,3.255,15.26,4.337276569,15.26,2.779099707
15.27,3.242,15.27,4.479383213,15.27,2.810905776
15.28,3.243,15.28,4.290720275,15.28,2.871598593
15.29,3.233,15.29,4.433748818,15.29,2.923765168
15.3,3.23,15.3,4.947882482,15.3,2.989649604
15.31,3.262,15.31,4.064058011,15.31,3.022333641
15.32,3.325,15.32,5.097133195,15.32,3.02951451
15.33,3.381,15.33,4.528535567,15.33,2.943754406
15.34,3.453,15.34,4.318196334,15.34,2.878381888
15.35,3.493,15.35,4.323875746,15.35,2.825599144
15.36,3.507,15.36,3.957505552,15.36,2.784271565
15.37,3.424,15.37,4.115383018,15.37,2.762178204
15.38,3.358,15.38,4.121371775,15.38,2.741526184
15.39,3.301,15.39,4.223525182,15.39,2.774231093
15.4,3.253,15.4,3.961074006,15.4,2.796767448
15.41,3.223,15.41,4.415341435,15.41,2.795023997
15.42,3.196,15.42,4.150201504,15.42,2.822635616
15.43,3.225,15.43,3.793080674,15.43,2.814658121
15.44,3.246,15.44,4.251312588,15.44,2.833904345
15.45,3.244,15.45,3.774926745,15.45,2.826902862
15.46,3.273,15.46,4.304238964,15.46,2.812232965
15.47,3.267,15.47,4.350683438,15.47,2.827925955
15.48,3.288,15.48,4.196688425,15.48,2.830367861
15.49,3.282,15.49,3.890006035,15.49,2.841091567
15.5,3.268,15.5,4.302043793,15.5,2.842592378
15.51,3.284,15.51,4.486896362,15.51,2.831979143
15.52,3.287,15.52,4.291552939,15.52,2.837644233
15.53,3.298,15.53,4.429298369,15.53,2.829615102
15.54,3.3,15.54,4.410159098,15.54,2.836698552
15.55,3.29,15.55,3.75583454,15.55,2.83294976
15.56,3.296,15.56,3.932752405,15.56,2.830005134
15.57,3.288,15.57,3.921500057,15.57,2.858421257
15.58,3.295,15.58,4.061093389,15.58,2.8537265
15.59,3.291,15.59,4.416748293,15.59,2.828922668
15.6,3.288,15.6,4.466706103,15.6,2.835809336
15.61,3.317,15.61,3.966766272,15.61,2.830750201
15.62,3.313,15.62,4.225136286,15.62,2.845113164
15.63,3.288,15.63,3.907767683,15.63,2.829811421
15.64,3.295,15.64,4.656562977,15.64,2.802589535
15.65,3.29,15.65,3.989391775,15.65,2.823977054
15.66,3.304,15.66,4.407815673,15.66,2.756173661
15.67,3.288,15.67,4.396383919,15.67,2.774315739
15.68,3.26,15.68,4.067127558,15.68,2.826566331
15.69,3.281,15.69,4.718678256,15.69,2.881455606
15.7,3.211,15.7,4.119461239,15.7,2.912991277
15.71,3.227,15.71,4.461314465,15.71,2.924123529
15.72,3.279,15.72,4.466145803,15.72,2.889557537
15.73,3.336,15.73,3.902510522,15.73,2.826187915
15.74,3.37,15.74,4.467701819,15.74,2.805043388
15.75,3.386,15.75,4.100257001,15.75,2.818542878
15.76,3.355,15.76,4.193497364,15.76,2.820524441
15.77,3.292,15.77,3.589323128,15.77,2.810980113
15.78,3.269,15.78,4.477419931,15.78,2.809732572
15.79,3.28,15.79,4.185927742,15.79,2.819564004
15.8,3.279,15.8,4.588468574,15.8,2.827481482
15.81,3.267,15.81,4.32929045,15.81,2.728209665
15.82,3.265,15.82,4.10789751,15.82,2.537132922
15.83,3.275,15.83,3.219492817,15.83,2.339859995
15.84,3.283,15.84,4.39487919,15.84,3.093696074
15.85,3.181,15.85,5.207688311,15.85,3.987056435
15.86,2.982,15.86,4.736550475,15.86,3.415962463
15.87,2.771,15.87,3.871224988,15.87,2.371388221
15.88,3.532,15.88,4.276809732,15.88,2.223902018
15.89,4.458,15.89,4.153829891,15.89,2.535382129
15.9,3.907,15.9,3.913673151,15.9,2.749868805
15.91,2.859,15.91,3.792216321,15.91,2.80700225
15.92,2.71,15.92,4.192553883,15.92,2.837694186
15.93,3.007,15.93,4.18832149,15.93,2.865942155
15.94,3.186,15.94,4.484812644,15.94,2.843858907
15.95,3.224,15.95,4.427399903,15.95,2.828128423
15.96,3.266,15.96,4.157554773,15.96,2.821591344
15.97,3.311,15.97,4.524931869,15.97,2.85039028
15.98,3.297,15.98,4.564981829,15.98,2.842671605
15.99,3.284,15.99,4.316700548,15.99,2.801730966
16,3.279,16,4.448844644,16,2.794646088
16.01,3.309,16.01,3.964437814,16.01,2.782781771
16.02,3.301,16.02,4.131471541,16.02,2.787674754
16.03,3.259,16.03,4.372224357,16.03,2.801014282
16.04,3.251,16.04,4.564722895,16.04,2.823543368
16.05,3.238,16.05,4.337309871,16.05,2.868543317
16.06,3.241,16.06,4.288277052,16.06,2.934234005
16.07,3.253,16.07,3.854253658,16.07,3.023338367
16.08,3.276,16.08,4.198596392,16.08,3.030387213
16.09,3.323,16.09,4.696946856,16.09,2.980321427
16.1,3.393,16.1,4.495874069,16.1,2.921139375
16.11,3.489,16.11,4.458064669,16.11,2.853821316
16.12,3.503,16.12,4.641988142,16.12,2.803741091
16.13,3.458,16.13,4.110674405,16.13,2.747837338
16.14,3.401,16.14,3.913232735,16.14,2.746906138
16.15,3.332,16.15,4.867477756,16.15,2.766975227
16.16,3.276,16.16,4.425638073,16.16,2.781793287
16.17,3.212,16.17,4.429437679,16.17,2.817079547
16.18,3.204,16.18,4.28293328,16.18,2.829190389
16.19,3.219,16.19,4.26885292,16.19,2.815410101
16.2,3.231,16.2,4.679301503,16.2,2.818905437
16.21,3.266,16.21,4.446576456,16.21,2.816760564
16.22,3.28,16.22,4.050813231,16.22,2.830203334
16.23,3.268,16.23,4.545489817,16.23,2.822260665
16.24,3.273,16.24,4.23149731,16.24,2.821982164
16.25,3.272,16.25,4.591788893,16.25,2.847119125
16.26,3.286,16.26,3.633385309,16.26,2.840395938
16.27,3.278,16.27,4.397521923,16.27,2.842980223
16.28,3.278,16.28,4.386498474,16.28,2.837478497
16.29,3.304,16.29,4.086384286,16.29,2.833086442
16.3,3.298,16.3,4.020729316,16.3,2.834392568
16.31,3.301,16.31,4.501279071,16.31,2.817032127
16.32,3.296,16.32,3.71233298,16.32,2.824560502
16.33,3.292,16.33,4.493109479,16.33,2.855087629
16.34,3.293,16.34,4.646592906,16.34,2.855477926
16.35,3.275,16.35,4.647079062,16.35,2.844202613
16.36,3.282,16.36,4.596880382,16.36,2.827866488
16.37,3.313,16.37,4.487528497,16.37,2.824806412
16.38,3.314,16.38,4.6138731,16.38,2.81977955
16.39,3.303,16.39,4.147333005,16.39,2.813977009
16.4,3.287,16.4,3.9698112,16.4,2.791535988
16.41,3.284,16.41,4.230671176,16.41,2.764454502
16.42,3.278,16.42,4.326081989,16.42,2.788649222
16.43,3.271,16.43,4.421101808,16.43,2.859677176
16.44,3.247,16.44,4.309216184,16.44,2.898376169
16.45,3.218,16.45,4.4617634,16.45,2.92748865
16.46,3.241,16.46,4.821170834,16.46,2.912091695
16.47,3.313,16.47,4.16846828,16.47,2.87138521
16.48,3.354,16.48,4.030868959,16.48,2.819156429
16.49,3.387,16.49,4.331104599,16.49,2.807458251
16.5,3.376,16.5,4.30928367,16.5,2.822351052
16.51,3.338,16.51,4.043621424,16.51,2.799667188
16.52,3.285,16.52,3.967910484,16.52,2.830118926
16.53,3.271,16.53,4.073136861,16.53,2.835925612
16.54,3.283,16.54,4.059629995,16.54,2.826592881
16.55,3.257,16.55,3.893425172,16.55,2.81006725
16.56,3.286,16.56,4.028567867,16.56,2.655235469
16.57,3.292,16.57,3.917377478,16.57,2.429798975
16.58,3.283,16.58,3.743505329,16.58,2.431800246
16.59,3.266,16.59,4.609248148,16.59,3.566435804
16.6,3.107,16.6,5.595137357,16.6,3.967607342
16.61,2.87,16.61,4.837198198,16.61,2.9572116
16.62,2.86,16.62,3.842620923,16.62,2.249840326
16.63,4.015,16.63,3.909127069,16.63,2.346383611
16.64,4.449,16.64,4.116669196,16.64,2.636859893
16.65,3.448,16.65,4.016899786,16.65,2.787360008
16.66,2.737,16.66,4.448004117,16.66,2.821176587
16.67,2.833,16.67,4.035310425,16.67,2.851835593
16.68,3.098,16.68,4.761009012,16.68,2.86053829
16.69,3.214,16.69,4.197994595,16.69,2.849769851
16.7,3.242,16.7,4.057795358,16.7,2.848206712
16.71,3.288,16.71,4.477805277,16.71,2.831837951
16.72,3.31,16.72,4.002542453,16.72,2.818141158
16.73,3.305,16.73,4.196051048,16.73,2.81419746
16.74,3.306,16.74,4.679586074,16.74,2.796643617
16.75,3.291,16.75,4.145502893,16.75,2.799091083
16.76,3.277,16.76,4.045397159,16.76,2.773872345
16.77,3.272,16.77,4.107606615,16.77,2.781096261
16.78,3.253,16.78,3.889202115,16.78,2.813292171
16.79,3.254,16.79,4.507646533,16.79,2.862542286
16.8,3.227,16.8,4.399970051,16.8,2.91721045
16.81,3.233,16.81,4.246067441,16.81,2.951039374
16.82,3.265,16.82,4.027285083,16.82,3.019917069
16.83,3.316,16.83,4.498332484,16.83,3.022433366
16.84,3.374,16.84,4.635572653,16.84,2.95320248
16.85,3.413,16.85,4.299869778,16.85,2.873804909
16.86,3.489,16.86,4.829241738,16.86,2.825905893
16.87,3.498,16.87,4.109610574,16.87,2.78932762
16.88,3.432,16.88,4.285393625,16.88,2.753233458
16.89,3.352,16.89,3.938920383,16.89,2.746665659
16.9,3.301,16.9,3.832338413,16.9,2.781008268
16.91,3.258,16.91,4.168325814,16.91,2.810155791
16.92,3.214,16.92,3.99530212,16.92,2.813996447
16.93,3.201,16.93,4.081818548,16.93,2.799968718
16.94,3.232,16.94,4.177958058,16.94,2.799545348
16.95,3.26,16.95,4.014753959,16.95,2.823290062
16.96,3.264,16.96,4.439231768,16.96,2.831568084
16.97,3.251,16.97,4.703982757,16.97,2.832903171
16.98,3.252,16.98,4.522039801,16.98,2.837706472
16.99,3.277,16.99,4.339577617,16.99,2.832646854
17,3.286,17,3.988113622,17,2.83908954
17.01,3.288,17.01,4.000101964,17.01,2.82906148
17.02,3.294,17.02,4.41482315,17.02,2.835893889
17.03,3.29,17.03,4.533232866,17.03,2.832005273
17.04,3.297,17.04,4.74461576,17.04,2.829088432
17.05,3.287,17.05,4.109177421,17.05,2.832283648
17.06,3.294,17.06,4.591652104,17.06,2.850671108
17.07,3.29,17.07,4.449410936,17.07,2.846366658
17.08,3.287,17.08,4.117528936,17.08,2.834283951
17.09,3.29,17.09,4.427439328,17.09,2.827310056
17.1,3.309,17.1,4.298969421,17.1,2.828390881
17.11,3.305,17.11,3.849788538,17.11,2.836780946
17.12,3.293,17.12,3.713511881,17.12,2.841921948
17.13,3.286,17.13,4.197344158,17.13,2.82909009
17.14,3.287,17.14,4.446521673,17.14,2.818367449
17.15,3.295,17.15,4.419990768,17.15,2.821587956
17.16,3.3,17.16,3.891768628,17.16,2.754952093
17.17,3.287,17.17,4.221776977,17.17,2.767176062
17.18,3.276,17.18,4.18327071,17.18,2.82153655
17.19,3.279,17.19,4.259519267,17.19,2.893538796
17.2,3.21,17.2,4.248483207,17.2,2.927602565
17.21,3.22,17.21,4.424365703,17.21,2.919819618
17.22,3.274,17.22,4.712718276,17.22,2.873502381
17.23,3.348,17.23,4.21104423,17.23,2.83765669
17.24,3.385,17.24,4.317270445,17.24,2.812624666
17.25,3.382,17.25,4.335855004,17.25,2.833127444
17.26,3.339,17.26,4.25867661,17.26,2.828747811
17.27,3.304,17.27,4.329928093,17.27,2.797117246
17.28,3.277,17.28,3.772567935,17.28,2.802397126
17.29,3.295,17.29,3.677048762,17.29,2.820422205
17.3,3.288,17.3,4.185288082,17.3,2.825814596
17.31,3.254,17.31,3.87097327,17.31,2.715184816
17.32,3.258,17.32,3.932879072,17.32,2.515384653
17.33,3.276,17.33,3.485534993,17.33,2.30008372
17.34,3.281,17.34,5.014560667,17.34,3.189276643
17.35,3.167,17.35,5.155209653,17.35,3.986588762
17.36,2.959,17.36,4.731576866,17.36,3.266363753
17.37,2.729,17.37,3.578010628,17.37,2.357608713
17.38,3.628,17.38,3.48816366,17.38,2.3231621
17.39,4.458,17.39,4.155219094,17.39,2.60344731
17.4,3.754,17.4,4.130298168,17.4,2.783002236
17.41,2.842,17.41,4.375348111,17.41,2.832968319
17.42,2.81,17.42,4.608200281,17.42,2.832147115
17.43,3.075,17.43,4.370551944,17.43,2.824264684
17.44,3.22,17.44,4.401668644,17.44,2.826546427
17.45,3.256,17.45,4.48080657,17.45,2.851122755
17.46,3.267,17.46,4.232852515,17.46,2.840954694
17.47,3.272,17.47,4.456368952,17.47,2.812871046
17.48,3.28,17.48,4.286802299,17.48,2.804173568
17.49,3.307,17.49,4.240213635,17.49,2.810531203
17.5,3.298,17.5,4.439201737,17.5,2.810673587
17.51,3.27,17.51,3.967447076,17.51,2.77948513
17.52,3.261,17.52,3.759766755,17.52,2.77759694
17.53,3.267,17.53,3.968455612,17.53,2.799845298
17.54,3.266,17.54,4.377437789,17.54,2.824569333
17.55,3.233,17.55,4.240848467,17.55,2.871905864
17.56,3.23,17.56,4.305805652,17.56,2.941263183
17.57,3.252,17.57,4.469203371,17.57,3.009450152
17.58,3.277,17.58,4.225503573,17.58,3.045052798
17.59,3.326,17.59,3.939503751,17.59,3.011124895
17.6,3.4,17.6,4.226746613,17.6,2.936555654
17.61,3.475,17.61,4.219965143,17.61,2.84271158
17.62,3.518,17.62,4.272097014,17.62,2.787653692
17.63,3.49,17.63,4.117724759,17.63,2.761747432
17.64,3.418,17.64,4.157134952,17.64,2.737960498
17.65,3.322,17.65,3.66413798,17.65,2.770422027
17.66,3.261,17.66,4.290265343,17.66,2.789738475
17.67,3.227,17.67,4.357478078,17.67,2.788412611
17.68,3.195,17.68,4.127193348,17.68,2.792026092
17.69,3.222,17.69,4.06177398,17.69,2.798520656
17.7,3.239,17.7,4.298868296,17.7,2.835683548
17.71,3.237,17.71,4.057885198,17.71,2.827517445
17.72,3.241,17.72,4.13702826,17.72,2.827266129
17.73,3.249,17.73,4.181392843,17.73,2.830984088
17.74,3.288,17.74,4.53112261,17.74,2.828951316
17.75,3.281,17.75,4.227016132,17.75,2.834840884
17.76,3.282,17.76,4.572849829,17.76,2.833562675
17.77,3.287,17.77,4.240983382,17.77,2.846922574
17.78,3.286,17.78,4.474356091,17.78,2.851283292
17.79,3.292,17.79,3.8336931,17.79,2.833116575
17.8,3.291,17.8,4.776219376,17.8,2.832143335
17.81,3.305,17.81,4.02626211,17.81,2.845751519
17.82,3.31,17.82,4.374744131,17.82,2.837974806
17.83,3.292,17.83,4.241230321,17.83,2.824727939
17.84,3.291,17.84,4.421092375,17.84,2.831782207
17.85,3.305,17.85,4.31422755,17.85,2.836669561
17.86,3.297,17.86,4.240435093,17.86,2.831116476
17.87,3.283,17.87,4.626522451,17.87,2.829395763
17.88,3.29,17.88,4.387963506,17.88,2.839977271
17.89,3.295,17.89,3.690158385,17.89,2.827116497
17.9,3.289,17.9,4.05812192,17.9,2.827395171
17.91,3.287,17.91,4.32743454,17.91,2.812923018
17.92,3.298,17.92,3.940383727,17.92,2.838671268
17.93,3.285,17.93,4.494077635,17.93,2.785258868
17.94,3.285,17.94,3.972841256,17.94,2.739816983
17.95,3.27,17.95,3.982292302,17.95,2.802647745
17.96,3.296,17.96,4.76363502,17.96,2.875979062
17.97,3.241,17.97,4.223511263,17.97,2.903239942
17.98,3.193,17.98,4.095400268,17.98,2.938851842
17.99,3.255,17.99,4.080143416,17.99,2.902977702
18,3.33,18,4.610257605,18,2.848299892
18.01,3.359,18.01,4.773480303,18.01,2.82537662
18.02,3.399,18.02,4.373815093,18.02,2.814623594
18.03,3.368,18.03,4.517594573,18.03,2.820909613
18.04,3.315,18.04,3.785946522,18.04,2.816530453
18.05,3.291,18.05,4.322940613,18.05,2.822534619
18.06,3.278,18.06,4.178745475,18.06,2.818008728
18.07,3.281,18.07,4.608496908,18.07,2.823952985
18.08,3.274,18.08,4.159114581,18.08,2.794815966
18.09,3.279,18.09,3.45340715,18.09,2.589379322
18.1,3.274,18.1,3.831228719,18.1,2.368581645
18.11,3.28,18.11,3.97663827,18.11,2.559546411
18.12,3.25,18.12,5.198917368,18.12,3.809184522
18.13,3.038,18.13,5.134822339,18.13,3.816074377
18.14,2.804,18.14,4.710917695,18.14,2.720386177
18.15,2.987,18.15,3.800446108,18.15,2.220969503
18.16,4.264,18.16,3.980895872,18.16,2.446327452
18.17,4.3,18.17,3.685642474,18.17,2.720647018
18.18,3.209,18.18,4.35454251,18.18,2.824034575
18.19,2.707,18.19,3.827794378,18.19,2.820062444
18.2,2.931,18.2,4.373719049,18.2,2.843926916
18.21,3.175,18.21,4.958123273,18.21,2.845691726
18.22,3.249,18.22,3.938368967,18.22,2.839348162
18.23,3.246,18.23,4.394311278,18.23,2.848761779
18.24,3.286,18.24,4.451320378,18.24,2.831533636
18.25,3.298,18.25,4.228780527,18.25,2.817810331
18.26,3.295,18.26,3.856511633,18.26,2.794116387
18.27,3.306,18.27,4.395396305,18.27,2.783671859
18.28,3.29,18.28,4.48369764,18.28,2.782619705
18.29,3.276,18.29,3.898850182,18.29,2.781207037
18.3,3.251,18.3,3.691531349,18.3,2.806710519
18.31,3.239,18.31,4.250153208,18.31,2.822073147
18.32,3.236,18.32,4.04629328,18.32,2.856100254
18.33,3.233,18.33,4.623665105,18.33,2.899736102
18.34,3.258,18.34,4.411549143,18.34,2.939063233
18.35,3.274,18.35,4.498232339,18.35,3.01869401
18.36,3.31,18.36,4.333870624,18.36,3.03026856
18.37,3.357,18.37,4.448816816,18.37,2.968455287
18.38,3.401,18.38,4.557803697,18.38,2.908583247
18.39,3.487,18.39,3.89333326,18.39,2.833100011
18.4,3.505,18.4,4.013300315,18.4,2.78163131
18.41,3.447,18.41,4.338384957,18.41,2.754645088
18.42,3.388,18.42,3.943892354,18.42,2.741604448
18.43,3.31,18.43,4.543593683,18.43,2.780951836
18.44,3.252,18.44,4.562143383,18.44,2.801601232
18.45,3.217,18.45,4.557268961,18.45,2.81330184
18.46,3.197,18.46,4.438016182,18.46,2.805219097
18.47,3.232,18.47,3.74196783,18.47,2.811351147
18.48,3.251,18.48,4.341992952,18.48,2.815319613
18.49,3.263,18.49,3.963875555,18.49,2.809957533
18.5,3.256,18.5,4.101643429,18.5,2.835206863
18.51,3.264,18.51,4.106250934,18.51,2.837177654
18.52,3.269,18.52,4.510203907,18.52,2.824705558
18.53,3.264,18.53,4.196809752,18.53,2.837981446
18.54,3.29,18.54,4.54699614,18.54,2.833227771
18.55,3.293,18.55,4.414081781,18.55,2.841950061
18.56,3.281,18.56,4.039757384,18.56,2.84078418
18.57,3.295,18.57,4.050750597,18.57,2.831532809
18.58,3.291,18.58,4.344008815,18.58,2.820977516
18.59,3.3,18.59,4.012893104,18.59,2.839781026
18.6,3.299,18.6,4.242394428,18.6,2.851503757
18.61,3.29,18.61,4.004348251,18.61,2.839534202
18.62,3.279,18.62,4.642710368,18.62,2.847089482
18.63,3.298,18.63,4.791923474,18.63,2.849252478
18.64,3.31,18.64,4.20001643,18.64,2.820752819
18.65,3.298,18.65,3.634605596,18.65,2.818670492
18.66,3.306,18.66,4.508964543,18.66,2.82605774
18.67,3.309,18.67,4.693342442,18.67,2.823754112
18.68,3.28,18.68,4.641188217,18.68,2.840091169
18.69,3.277,18.69,4.074541111,18.69,2.826008425
18.7,3.284,18.7,4.059126675,18.7,2.832646127
18.71,3.281,18.71,4.501713432,18.71,2.829562212
18.72,3.297,18.72,3.963190066,18.72,2.836199548
18.73,3.283,18.73,4.985550941,18.73,2.796424935
18.74,3.29,18.74,4.57990795,18.74,2.743787109
18.75,3.287,18.75,4.130747419,18.75,2.785229487
18.76,3.294,18.76,4.599301606,18.76,2.860478939
18.77,3.253,18.77,4.491450782,18.77,2.89979345
18.78,3.198,18.78,4.809192507,18.78,2.939741278
18.79,3.238,18.79,4.108077087,18.79,2.922480598
18.8,3.314,18.8,4.563029644,18.8,2.858052245
18.81,3.355,18.81,4.385760956,18.81,2.805239154
18.82,3.399,18.82,4.459085864,18.82,2.807566717
18.83,3.387,18.83,4.709079704,18.83,2.812100902
18.84,3.325,18.84,3.94978978,18.84,2.816280498
18.85,3.271,18.85,4.407041599,18.85,2.834259806
18.86,3.271,18.86,4.03852571,18.86,2.823038078
18.87,3.272,18.87,4.471694817,18.87,2.82281553
18.88,3.273,18.88,3.623005273,18.88,2.793454197
18.89,3.29,18.89,4.478624932,18.89,2.596765933
18.9,3.279,18.9,4.176207254,18.9,2.38966353
18.91,3.279,18.91,3.65076944,18.91,2.566546479
18.92,3.249,18.92,5.106112383,18.92,3.816905968
18.93,3.046,18.93,4.855547461,18.93,3.834209734
18.94,2.826,18.94,4.043969307,18.94,2.725548955
18.95,2.995,18.95,3.49325509,18.95,2.195440922
18.96,4.273,18.96,3.31203843,18.96,2.414909049
18.97,4.32,18.97,3.976716638,18.97,2.706893989
18.98,3.216,18.98,4.279543924,18.98,2.821952193
18.99,2.682,18.99,3.959839688,18.99,2.835790093
19,2.899,19,4.228903586,19,2.843988349
19.01,3.16,19.01,4.340867936,19.01,2.84877737
19.02,3.245,19.02,4.305179343,19.02,2.839014375
19.03,3.26,19.03,4.276215442,19.03,2.834704839
19.04,3.285,19.04,4.300030023,19.04,2.821172767
19.05,3.301,19.05,4.104177082,19.05,2.824254036
19.06,3.295,19.06,4.238544587,19.06,2.808255835
19.07,3.292,19.07,4.284343322,19.07,2.805201707
19.08,3.279,19.08,4.00772236,19.08,2.801203534
19.09,3.282,19.09,4.260714938,19.09,2.752261919
19.1,3.265,19.1,4.24858768,19.1,2.780652082
19.11,3.261,19.11,4.115777643,19.11,2.831151288
19.12,3.256,19.12,4.45866112,19.12,2.861654948
19.13,3.205,19.13,4.305506673,19.13,2.911547225
19.14,3.232,19.14,4.501268145,19.14,2.954649071
19.15,3.283,19.15,5.0116796,19.15,2.994221183
19.16,3.315,19.16,3.727380443,19.16,3.007684383
19.17,3.368,19.17,4.424296617,19.17,2.979701915
19.18,3.417,19.18,4.042520584,19.18,2.916915885
19.19,3.463,19.19,4.681097308,19.19,2.828049918
19.2,3.482,19.2,4.067874681,19.2,2.759551304
19.21,3.458,19.21,4.628245582,19.21,2.755892692
19.22,3.396,19.22,4.273293469,19.22,2.770352637
19.23,3.304,19.23,3.76665971,19.23,2.783843426
19.24,3.229,19.24,4.383354365,19.24,2.779938653
19.25,3.218,19.25,4.593695456,19.25,2.80813287
19.26,3.226,19.26,4.545975973,19.26,2.804103622
19.27,3.235,19.27,4.209764613,19.27,2.818852091
19.28,3.229,19.28,3.82725224,19.28,2.832433642
19.29,3.258,19.29,4.00624093,19.29,2.817235914
19.3,3.255,19.3,3.957655103,19.3,2.832401047
19.31,3.271,19.31,4.660983178,19.31,2.841202926
19.32,3.286,19.32,4.480410487,19.32,2.83461879
19.33,3.272,19.33,4.342621848,19.33,2.843202514
19.34,3.288,19.34,4.140417229,19.34,2.836560892
19.35,3.298,19.35,4.348160003,19.35,2.828587944
19.36,3.292,19.36,4.307621098,19.36,2.824032715
19.37,3.301,19.37,4.423185986,19.37,2.830142717
19.38,3.295,19.38,3.529835176,19.38,2.841199354
19.39,3.287,19.39,4.239194296,19.39,2.831368021
19.4,3.282,19.4,4.847705539,19.4,2.836173553
19.41,3.288,19.41,4.39386943,19.41,2.8348664
19.42,3.299,19.42,4.644997097,19.42,2.836671035
19.43,3.289,19.43,4.375696,19.43,2.845532867
19.44,3.294,19.44,4.588906114,19.44,2.840254714
19.45,3.293,19.45,4.153352981,19.45,2.829421758
19.46,3.295,19.46,4.263192459,19.46,2.808171584
19.47,3.304,19.47,4.508213036,19.47,2.826475349
19.48,3.299,19.48,4.365430642,19.48,2.848420636
19.49,3.288,19.49,4.061172465,19.49,2.823925012
19.5,3.266,19.5,3.919970122,19.5,2.824121038
19.51,3.284,19.51,3.625651172,19.51,2.84119945
19.52,3.306,19.52,4.151451178,19.52,2.835920734
19.53,3.281,19.53,4.729958347,19.53,2.8304245
19.54,3.281,19.54,3.83032505,19.54,2.787452624
19.55,3.299,19.55,4.426499242,19.55,2.750562727
19.56,3.294,19.56,3.856731716,19.56,2.785256777
19.57,3.288,19.57,4.29400218,19.57,2.857786143
19.58,3.244,19.58,4.322237225,19.58,2.898960898
19.59,3.205,19.59,4.302793725,19.59,2.93771257
19.6,3.238,19.6,4.788176073,19.6,2.93528585
19.61,3.311,19.61,4.532197784,19.61,2.86077496
19.62,3.354,19.62,4.439647995,19.62,2.823349816
19.63,3.397,19.63,4.190345791,19.63,2.82220443
19.64,3.4,19.64,3.662637962,19.64,2.806793518
19.65,3.328,19.65,4.069655409,19.65,2.814361961
19.66,3.29,19.66,4.424832642,19.66,2.811062338
19.67,3.287,19.67,4.157434377,19.67,2.795175937
19.68,3.268,19.68,4.235324157,19.68,2.823427127
19.69,3.272,19.69,4.011009711,19.69,2.788150817
19.7,3.267,19.7,3.711912976,19.7,2.604271123
19.71,3.25,19.71,3.475158858,19.71,2.357474725
19.72,3.278,19.72,3.902161544,19.72,2.659904224
19.73,3.242,19.73,5.281682168,19.73,3.928986019
19.74,3.052,19.74,5.478081132,19.74,3.76104835
19.75,2.792,19.75,3.799258925,19.75,2.605884083
19.76,3.09,19.76,3.6449938,19.76,2.153002651
19.77,4.39,19.77,3.556670804,19.77,2.454090295
19.78,4.25,19.78,3.367386015,19.78,2.749300789
19.79,3.096,19.79,3.775359338,19.79,2.816639895
19.8,2.639,19.8,4.534362344,19.8,2.836098893
19.81,2.936,19.81,3.894266018,19.81,2.846952222
19.82,3.198,19.82,3.918201988,19.82,2.836106363
19.83,3.237,19.83,3.721096495,19.83,2.839404236
19.84,3.261,19.84,3.943750642,19.84,2.834871
19.85,3.29,19.85,4.235835134,19.85,2.843727597
19.86,3.289,19.86,4.266385759,19.86,2.822978203
19.87,3.295,19.87,3.938866388,19.87,2.795006314
19.88,3.292,19.88,4.660307324,19.88,2.794255866
19.89,3.302,19.89,4.467476962,19.89,2.789589598
19.9,3.281,19.9,4.345880208,19.9,2.78051185
19.91,3.252,19.91,4.151006872,19.91,2.794487791
19.92,3.25,19.92,4.073057131,19.92,2.815071148
19.93,3.244,19.93,4.696915737,19.93,2.864182081
19.94,3.233,19.94,4.36813529,19.94,2.917541919
19.95,3.246,19.95,4.603547188,19.95,2.969981016
19.96,3.267,19.96,4.508482454,19.96,3.007556153
