Time,Original,Time,Noisy,Time,LMS Filtered
0.01,3.29,0.01,3.391705098,0.01,3.233816545
0.02,3.302,0.02,3.537705098,0.02,3.229796705
0.03,3.308,0.03,3.598,0.03,3.232812359
0.04,3.306,0.04,3.539705098,0.04,3.231855785
0.05,3.299,0.05,3.383705098,0.05,3.225915127
0.06,3.295,0.06,3.188294902,0.06,3.215986291
0.07,3.298,0.07,3.041294902,0.07,3.219029602
0.08,3.297,0.08,2.979,0.08,3.214104598
0.09,3.291,0.09,3.041294902,0.09,3.219155926
0.1,3.281,0.1,3.198294902,0.1,3.226155949
0.11,3.284,0.11,3.380705098,0.11,3.223128351
0.12,3.279,0.12,3.529705098,0.12,3.222116606
0.13,3.284,0.13,3.592,0.13,3.227065185
0.14,3.291,0.14,3.530705098,0.14,3.223049363
0.15,3.288,0.15,3.378705098,0.15,3.221069166
0.16,3.287,0.16,3.201294902,0.16,3.229045401
0.17,3.292,0.17,3.047294902,0.17,3.225033544
0.18,3.288,0.18,2.996,0.18,3.231017778
0.19,3.286,0.19,3.046294902,0.19,3.224013908
0.2,3.294,0.2,3.191294902,0.2,3.219021783
0.21,3.29,0.21,3.384705098,0.21,3.227029605
0.22,3.296,0.22,3.531705098,0.22,3.224033499
0.23,3.289,0.23,3.583,0.23,3.21808497
0.24,3.284,0.24,3.525705098,0.24,3.218108683
0.25,3.292,0.25,3.386705098,0.25,3.229068998
0.26,3.289,0.26,3.203294902,0.26,3.231053236
0.27,3.283,0.27,3.048294902,0.27,3.226045511
0.28,3.283,0.28,2.991,0.28,3.226013945
0.29,3.294,0.29,3.044294902,0.29,3.221998055
0.3,3.296,0.3,3.191294902,0.3,3.219037522
0.31,3.291,0.31,3.379705098,0.31,3.222073043
0.32,3.291,0.32,3.533705098,0.32,3.226072993
0.33,3.287,0.33,3.589,0.33,3.224080966
0.34,3.284,0.34,3.525705098,0.34,3.218096859
0.35,3.287,0.35,3.372705098,0.35,3.215112626
0.36,3.291,0.36,3.183294902,0.36,3.211156
0.37,3.289,0.37,3.037294902,0.37,3.215199375
0.38,3.283,0.38,2.987,0.38,3.22220725
0.39,3.28,0.39,3.048294902,0.39,3.226175699
0.4,3.276,0.4,3.197294902,0.4,3.225136325
0.41,3.28,0.41,3.399705098,0.41,3.242013798
0.42,3.287,0.42,3.551705098,0.42,3.24389927
0.43,3.291,0.43,3.601,0.43,3.235844137
0.44,3.29,0.44,3.549705098,0.44,3.24178095
0.45,3.307,0.45,3.395705098,0.45,3.23772947
0.46,3.309,0.46,3.197294902,0.46,3.224796685
0.47,3.301,0.47,3.041294902,0.47,3.218895458
0.48,3.307,0.48,2.989,0.48,3.223942634
0.49,3.303,0.49,3.063294902,0.49,3.240946436
0.5,3.29,0.5,3.220294902,0.5,3.247907086
0.51,3.284,0.51,3.384705098,0.51,3.226899548
0.52,3.289,0.52,3.534705098,0.52,3.226867936
0.53,3.306,0.53,3.589,0.53,3.223867682
0.54,3.313,0.54,3.533705098,0.54,3.225926778
0.55,3.292,0.55,3.388705098,0.55,3.230994034
0.56,3.292,0.56,3.201294902,0.56,3.228986175
0.57,3.289,0.57,3.056294902,0.57,3.233958556
0.58,3.291,0.58,2.994,0.58,3.228938847
0.59,3.296,0.59,3.039294902,0.59,3.216974444
0.6,3.294,0.6,3.187294902,0.6,3.215037592
0.61,3.299,0.61,3.376705098,0.61,3.219076904
0.62,3.294,0.62,3.527705098,0.62,3.220132192
0.63,3.282,0.63,3.581,0.63,3.216183683
0.64,3.28,0.64,3.518705098,0.64,3.211207432
0.65,3.284,0.65,3.351705098,0.65,3.194290403
0.66,3.285,0.66,3.145294902,0.66,3.173472087
0.67,3.281,0.67,3.020294902,0.67,3.198558608
0.68,3.276,0.68,3.137,0.68,3.371941274
0.69,3.259,0.69,3.260294902,0.69,3.437045286
0.7,3.238,0.7,3.239294902,0.7,3.265759964
0.71,3.263,0.71,3.239705098,0.71,3.081120747
0.72,3.437,0.72,3.381705098,0.72,3.073607299
0.73,3.503,0.73,3.522,0.73,3.157453364
0.74,3.332,0.74,3.516705098,0.74,3.210358475
0.75,3.147,0.75,3.377705098,0.75,3.2215463
0.76,3.139,0.76,3.201294902,0.76,3.229966443
0.77,3.222,0.77,3.054294902,0.77,3.232342049
0.78,3.274,0.78,3.011,0.78,3.245990167
0.79,3.285,0.79,3.071294902,0.79,3.248832193
0.8,3.294,0.8,3.207294902,0.8,3.234773103
0.81,3.297,0.81,3.395705098,0.81,3.237737525
0.82,3.311,0.82,3.538705098,0.82,3.230741324
0.83,3.314,0.83,3.59,0.83,3.22482423
0.84,3.3,0.84,3.528705098,0.84,3.22093488
0.85,3.303,0.85,3.368705098,0.85,3.211029625
0.86,3.296,0.86,3.189294902,0.86,3.217112488
0.87,3.29,0.87,3.041294902,0.87,3.219159849
0.88,3.286,0.88,2.987,0.88,3.222171732
0.89,3.276,0.89,3.054294902,0.89,3.232128347
0.9,3.282,0.9,3.214294902,0.9,3.242005872
0.91,3.284,0.91,3.399705098,0.91,3.241907248
0.92,3.287,0.92,3.555705098,0.92,3.24779276
0.93,3.297,0.93,3.61,0.93,3.24470192
0.94,3.307,0.94,3.544705098,0.94,3.236682182
0.95,3.307,0.95,3.402705098,0.95,3.244670244
0.96,3.313,0.96,3.195294902,0.96,3.222745343
0.97,3.31,0.97,3.044294902,0.97,3.221848005
0.98,3.302,0.98,2.976,0.98,3.210982272
0.99,3.31,0.99,3.038294902,0.99,3.216064993
1,3.288,1,3.204294902,1,3.232116334
1.01,3.287,1.01,3.385705098,1.01,3.22809669
1.02,3.276,1.02,3.530705098,1.02,3.223092983
1.03,3.281,1.03,3.57,1.03,3.205116758
1.04,3.297,1.04,3.526705098,1.04,3.219104568
1.05,3.293,1.05,3.373705098,1.05,3.216167712
1.06,3.288,1.06,3.203294902,1.06,3.231155844
1.07,3.27,1.07,3.044294902,1.07,3.222160075
1.08,3.284,1.08,2.993,1.08,3.228069159
1.09,3.281,1.09,3.049294902,1.09,3.227037595
1.1,3.296,1.1,3.201294902,1.1,3.228986136
1.11,3.287,1.11,3.386705098,1.11,3.228994125
1.12,3.293,1.12,3.538705098,1.12,3.230958532
1.13,3.292,1.13,3.589,1.13,3.223974398
1.14,3.294,1.14,3.532705098,1.14,3.224982262
1.15,3.294,1.15,3.383705098,1.15,3.22599406
1.16,3.296,1.16,3.194294902,1.16,3.222021706
1.17,3.289,1.17,3.049294902,1.17,3.22703752
1.18,3.29,1.18,2.997,1.18,3.232005877
1.19,3.291,1.19,3.061294902,1.19,3.238950577
1.2,3.287,1.2,3.202294902,1.2,3.229934953
1.21,3.292,1.21,3.372705098,1.21,3.214962692
1.22,3.297,1.22,3.530705098,1.22,3.222978289
1.23,3.304,1.23,3.592,1.23,3.226997843
1.24,3.295,1.24,3.518705098,1.24,3.211108635
1.25,3.28,1.25,3.377705098,1.25,3.220148178
1.26,3.288,1.26,3.195294902,1.26,3.223116425
1.27,3.292,1.27,3.046294902,1.27,3.22411247
1.28,3.276,1.28,2.995,1.28,3.230100762
1.29,3.285,1.29,3.051294902,1.29,3.22902965
1.3,3.288,1.3,3.199294902,1.3,3.22700204
1.31,3.289,1.31,3.385705098,1.31,3.227982281
1.32,3.295,1.32,3.534705098,1.32,3.226970378
1.33,3.294,1.33,3.59,1.33,3.224990143
1.34,3.292,1.34,3.527705098,1.34,3.220025724
1.35,3.293,1.35,3.374705098,1.35,3.217065192
1.36,3.292,1.36,3.204294902,1.36,3.232049246
1.37,3.29,1.37,3.051294902,1.37,3.229041404
1.38,3.285,1.38,2.997,1.38,3.232013872
1.39,3.282,1.39,3.061294902,1.39,3.238938846
1.4,3.297,1.4,3.207294902,1.4,3.234867708
1.41,3.294,1.41,3.380705098,1.41,3.222903403
1.42,3.297,1.42,3.512705098,1.42,3.204998226
1.43,3.304,1.43,3.573,1.43,3.20809276
1.44,3.3,1.44,3.529705098,1.44,3.222159674
1.45,3.288,1.45,3.387705098,1.45,3.230179486
1.46,3.27,1.46,3.199294902,1.46,3.227163999
1.47,3.273,1.47,3.056294902,1.47,3.23404949
1.48,3.287,1.48,2.987,1.48,3.221994197
1.49,3.295,1.49,3.046294902,1.49,3.223986219
1.5,3.292,1.5,3.202294902,1.5,3.22998614
1.51,3.299,1.51,3.362705098,1.51,3.20507314
1.52,3.287,1.52,3.479705098,1.52,3.172318267
1.53,3.289,1.53,3.555,1.53,3.190444206
1.54,3.295,1.54,3.622705098,1.54,3.315083675
1.55,3.27,1.55,3.580705098,1.55,3.422321463
1.56,3.237,1.56,3.304294902,1.56,3.330822207
1.57,3.255,1.57,2.956294902,1.57,3.132974307
1.58,3.38,1.58,2.833,1.58,3.067454424
1.59,3.488,1.59,2.944294902,1.59,3.122213378
1.6,3.397,1.6,3.161294902,1.6,3.190136905
1.61,3.199,1.61,3.390705098,1.61,3.234529639
1.62,3.133,1.62,3.552705098,1.62,3.246092555
1.63,3.187,1.63,3.609,1.63,3.244397639
1.64,3.254,1.64,3.553705098,1.64,3.245907599
1.65,3.298,1.65,3.398705098,1.65,3.240701956
1.66,3.31,1.66,3.206294902,1.66,3.233697951
1.67,3.309,1.67,3.050294902,1.67,3.227765077
1.68,3.311,1.68,2.985,1.68,3.219859807
1.69,3.306,1.69,3.038294902,1.69,3.215978254
1.7,3.299,1.7,3.201294902,1.7,3.229025519
1.71,3.293,1.71,3.383705098,1.71,3.226057178
1.72,3.285,1.72,3.535705098,1.72,3.228057304
1.73,3.281,1.73,3.579,1.73,3.214081149
1.74,3.294,1.74,3.527705098,1.74,3.22006516
1.75,3.291,1.75,3.383705098,1.75,3.226076914
1.76,3.293,1.76,3.202294902,1.76,3.230061102
1.77,3.279,1.77,3.060294902,1.77,3.238021745
1.78,3.285,1.78,3.006,1.78,3.240915126
1.79,3.291,1.79,3.072294902,1.79,3.249796624
1.8,3.295,1.8,3.208294902,1.8,3.235757275
1.81,3.303,1.81,3.390705098,1.81,3.232745406
1.82,3.306,1.82,3.530705098,1.82,3.222804598
1.83,3.315,1.83,3.585,1.83,3.219887378
1.84,3.301,1.84,3.539705098,1.84,3.231958399
1.85,3.298,1.85,3.386705098,1.85,3.228986082
1.86,3.288,1.86,3.193294902,1.86,3.221033678
1.87,3.285,1.87,3.036294902,1.87,3.214069274
1.88,3.297,1.88,2.991,1.88,3.226045305
1.89,3.294,1.89,3.048294902,1.89,3.226068994
1.9,3.286,1.9,3.201294902,1.9,3.229069108
1.91,3.279,1.91,3.383705098,1.91,3.226049485
1.92,3.291,1.92,3.524705098,1.92,3.217037613
1.93,3.291,1.93,3.577,1.93,3.212092888
1.94,3.294,1.94,3.528705098,1.94,3.221112453
1.95,3.291,1.95,3.385705098,1.95,3.228116349
1.96,3.282,1.96,3.206294902,1.96,3.234084867
1.97,3.277,1.97,3.053294902,1.97,3.231029741
1.98,3.286,1.98,2.992,1.98,3.226970511
1.99,3.293,1.99,3.041294902,1.99,3.218978388
2,3.299,2,3.209294902,2,3.236942604
2.01,3.296,2.01,3.383705098,2.01,3.225974294
2.02,3.292,2.02,3.527705098,2.02,3.220017879
2.03,3.284,2.03,3.579,2.03,3.21406927
2.04,3.302,2.04,3.530705098,2.04,3.223053167
2.05,3.291,2.05,3.390705098,2.05,3.233068956
2.06,3.285,2.06,3.194294902,2.06,3.222084965
2.07,3.279,2.07,3.046294902,2.07,3.224069262
2.08,3.288,2.08,2.999,2.08,3.233990091
2.09,3.298,2.09,3.050294902,2.09,3.227970327
2.1,3.287,2.1,3.192294902,2.1,3.220021868
2.11,3.289,2.11,3.386705098,2.11,3.228994099
2.12,3.299,2.12,3.545705098,2.12,3.237938625
2.13,3.293,2.13,3.595,2.13,3.229954604
2.14,3.285,2.14,3.536705098,2.14,3.228950789
2.15,3.294,2.15,3.373705098,2.15,3.215966564
2.16,3.303,2.16,3.186294902,2.16,3.214025663
2.17,3.295,2.17,3.043294902,2.17,3.221092708
2.18,3.294,2.18,2.989,2.18,3.224116365
2.19,3.281,2.19,3.052294902,2.19,3.230112537
2.2,3.279,2.2,3.209294902,2.2,3.237029638
2.21,3.286,2.21,3.392705098,2.21,3.234946743
2.22,3.289,2.22,3.530705098,2.22,3.222938965
2.23,3.295,2.23,3.585,2.23,3.219954693
2.24,3.302,2.24,3.524705098,2.24,3.217005889
2.25,3.3,2.25,3.377705098,2.25,3.220072953
2.26,3.288,2.26,3.196294902,2.26,3.224116443
2.27,3.285,2.27,3.054294902,2.27,3.232080899
2.28,3.282,2.28,2.99,2.28,3.225061294
2.29,3.285,2.29,3.048294902,2.29,3.226025766
2.3,3.289,2.3,3.161294902,2.3,3.189148386
2.31,3.297,2.31,3.335705098,2.31,3.178329905
2.32,3.29,2.32,3.531705098,2.32,3.224360923
2.33,3.291,2.33,3.759,2.33,3.393692327
2.34,3.254,2.34,3.710705098,2.34,3.40199452
2.35,3.243,2.35,3.368705098,2.35,3.209910482
2.36,3.289,2.36,3.041294902,2.36,3.068341367
2.37,3.459,2.37,2.917294902,2.37,3.094847308
2.38,3.468,2.38,2.952,2.38,3.18766257
2.39,3.276,2.39,3.042294902,2.39,3.22138673
2.4,3.134,2.4,3.187294902,2.4,3.216373002
2.41,3.16,2.41,3.389705098,2.41,3.232729452
2.42,3.252,2.42,3.547705098,2.42,3.240156146
2.43,3.285,2.43,3.609,2.43,3.243930893
2.44,3.28,2.44,3.537705098,2.44,3.229891662
2.45,3.297,2.45,3.389705098,2.45,3.231824374
2.46,3.305,2.46,3.197294902,2.46,3.224851916
2.47,3.309,2.47,3.048294902,2.47,3.225907114
2.48,3.295,2.48,2.999,2.48,3.233946621
2.49,3.297,2.49,3.041294902,2.49,3.218990166
2.5,3.29,2.5,3.186294902,2.5,3.214061348
2.51,3.291,2.51,3.370705098,2.51,3.213108628
2.52,3.299,2.52,3.533705098,2.52,3.22610839
2.53,3.284,2.53,3.587,2.53,3.222155957
2.54,3.279,2.54,3.530705098,2.54,3.223140273
2.55,3.278,2.55,3.399705098,2.55,3.242029585
2.56,3.291,2.56,3.219294902,2.56,3.246895242
2.57,3.287,2.57,3.075294902,2.57,3.25278877
2.58,3.288,2.58,3.019,2.58,3.253662496
2.59,3.307,2.59,3.062294902,2.59,3.239595366
2.6,3.312,2.6,3.199294902,2.6,3.226654623
2.61,3.318,2.61,3.382705098,2.61,3.224741319
2.62,3.319,2.62,3.526705098,2.62,3.218875479
2.63,3.305,2.63,3.581,2.63,3.216025606
2.64,3.292,2.64,3.526705098,2.64,3.219108561
2.65,3.29,2.65,3.386705098,2.65,3.229100582
2.66,3.284,2.66,3.192294902,2.66,3.22012049
2.67,3.281,2.67,3.034294902,2.67,3.212148262
2.68,3.284,2.68,2.98,2.68,3.215152098
2.69,3.294,2.69,3.056294902,2.69,3.234092575
2.7,3.285,2.7,3.197294902,2.7,3.225108578
2.71,3.277,2.71,3.373705098,2.71,3.216124617
2.72,3.28,2.72,3.535705098,2.72,3.228061277
2.73,3.299,2.73,3.588,2.73,3.223029517
2.74,3.29,2.74,3.528705098,2.74,3.221080988
2.75,3.281,2.75,3.380705098,2.75,3.223088934
2.76,3.293,2.76,3.190294902,2.76,3.218080951
2.77,3.288,2.77,3.053294902,2.77,3.231069045
2.78,3.286,2.78,3.006,2.78,3.240997926
2.79,3.288,2.79,3.054294902,2.79,3.231954651
2.8,3.283,2.8,3.207294902,2.8,3.234907359
2.81,3.296,2.81,3.386705098,2.81,3.228863827
2.82,3.306,2.82,3.528705098,2.82,3.220903267
2.83,3.297,2.83,3.586,2.83,3.220982256
2.84,3.3,2.84,3.525705098,2.84,3.218037464
2.85,3.294,2.85,3.380705098,2.85,3.223084834
2.86,3.286,2.86,3.188294902,2.86,3.216136282
2.87,3.286,2.87,3.042294902,2.87,3.220140206
2.88,3.283,2.88,2.996,2.88,3.23110064
2.89,3.288,2.89,3.050294902,2.89,3.22806118
2.9,3.281,2.9,3.202294902,2.9,3.230033661
2.91,3.285,2.91,3.384705098,2.91,3.226990225
2.92,3.296,2.92,3.530705098,2.92,3.222978311
2.93,3.293,2.93,3.587,2.93,3.222013853
2.94,3.295,2.94,3.531705098,2.94,3.224029578
2.95,3.292,2.95,3.388705098,2.95,3.231025593
2.96,3.288,2.96,3.205294902,2.96,3.233001956
2.97,3.287,2.97,3.042294902,2.97,3.220013966
2.98,3.289,2.98,2.99,2.98,3.225002054
2.99,3.296,2.99,3.049294902,2.99,3.226990063
3,3.298,3,3.201294902,3,3.22899794
3.01,3.285,3.01,3.387705098,3.01,3.230009922
3.02,3.29,3.02,3.533705098,3.02,3.225986239
3.03,3.292,3.03,3.579,3.03,3.214029744
3.04,3.294,3.04,3.524705098,3.04,3.217069126
3.05,3.295,3.05,3.381705098,3.05,3.224088726
3.06,3.291,3.06,3.186294902,3.06,3.214152028
3.07,3.279,3.07,3.046294902,3.07,3.224159978
3.08,3.282,3.08,2.974,3.08,3.209179785
3.09,3.289,3.09,2.999294902,3.09,3.177337904
3.1,3.279,3.1,3.163294902,3.1,3.191468006
3.11,3.289,3.11,3.513705098,3.11,3.355905783
3.12,3.274,3.12,3.732705098,3.12,3.424112288
3.13,3.242,3.13,3.619,3.13,3.252937545
3.14,3.256,3.14,3.403705098,3.14,3.095258736
3.15,3.421,3.15,3.252705098,3.15,3.094634847
3.16,3.49,3.16,3.128294902,3.16,3.15642203
3.17,3.319,3.17,3.029294902,3.17,3.208283753
3.18,3.161,3.18,3.007,3.18,3.243332826
3.19,3.16,3.19,3.073294902,3.19,3.25172134
3.2,3.221,3.2,3.220294902,3.2,3.248117087
3.21,3.272,3.21,3.402705098,3.21,3.244765376
3.22,3.307,3.22,3.544705098,3.22,3.236646665
3.23,3.316,3.23,3.59,3.23,3.224713749
3.24,3.313,3.24,3.529705098,3.24,3.221828206
3.25,3.31,3.25,3.373705098,3.25,3.215954521
3.26,3.302,3.26,3.190294902,3.26,3.21806112
3.27,3.29,3.27,3.043294902,3.27,3.221124337
3.28,3.287,3.28,2.991,3.28,3.226120387
3.29,3.281,3.29,3.036294902,3.29,3.214152158
3.3,3.283,3.3,3.206294902,3.3,3.23408092
3.31,3.286,3.31,3.397705098,3.31,3.239993973
3.32,3.291,3.32,3.534705098,3.32,3.226970465
3.33,3.279,3.33,3.592,3.33,3.226966666
3.34,3.299,3.34,3.549705098,3.34,3.241855744
3.35,3.305,3.35,3.404705098,3.35,3.246804342
3.36,3.292,3.36,3.213294902,3.36,3.240800671
3.37,3.292,3.37,3.061294902,3.37,3.238753352
3.38,3.307,3.38,2.994,3.38,3.228745363
3.39,3.312,3.39,3.048294902,3.39,3.22580846
3.4,3.306,3.4,3.188294902,3.4,3.215930909
3.41,3.304,3.41,3.378705098,3.41,3.221009785
3.42,3.294,3.42,3.524705098,3.42,3.21709671
3.43,3.291,3.43,3.583,3.43,3.218140162
3.44,3.281,3.44,3.531705098,3.44,3.224148088
3.45,3.286,3.45,3.384705098,3.45,3.227104605
3.46,3.282,3.46,3.185294902,3.46,3.213136386
3.47,3.283,3.47,3.038294902,3.47,3.216140293
3.48,3.289,3.48,3,3.48,3.235072894
3.49,3.292,3.49,3.053294902,3.49,3.231045307
3.5,3.278,3.5,3.193294902,3.5,3.22106932
3.51,3.281,3.51,3.377705098,3.51,3.220041644
3.52,3.3,3.52,3.538705098,3.52,3.230982088
3.53,3.296,3.53,3.593,3.53,3.228009791
3.54,3.286,3.54,3.533705098,3.54,3.226029699
3.55,3.285,3.55,3.380705098,3.55,3.223021831
3.56,3.296,3.56,3.195294902,3.56,3.22300986
3.57,3.293,3.57,3.046294902,3.57,3.224037493
3.58,3.291,3.58,2.989,3.58,3.224053301
3.59,3.288,3.59,3.051294902,3.59,3.229041451
3.6,3.288,3.6,3.207294902,3.6,3.234994042
3.61,3.289,3.61,3.383705098,3.61,3.225982308
3.62,3.289,3.62,3.533705098,3.62,3.225974435
3.63,3.294,3.63,3.595,3.63,3.229950622
3.64,3.3,3.64,3.532705098,3.64,3.224966394
3.65,3.291,3.65,3.378705098,3.65,3.221021793
3.66,3.291,3.66,3.211294902,3.66,3.238970289
3.67,3.295,3.67,3.054294902,3.67,3.231946634
3.68,3.29,3.68,2.996,3.68,3.230942829
3.69,3.286,3.69,3.044294902,3.69,3.221954766
3.7,3.304,3.7,3.197294902,3.7,3.224938741
3.71,3.297,3.71,3.375705098,3.71,3.21802172
3.72,3.296,3.72,3.535705098,3.72,3.228037426
3.73,3.287,3.73,3.59,3.73,3.225061208
3.74,3.29,3.74,3.530705098,3.74,3.223057292
3.75,3.283,3.75,3.378705098,3.75,3.221073157
3.76,3.293,3.76,3.202294902,3.76,3.230025594
3.77,3.29,3.77,3.061294902,3.77,3.238982129
3.78,3.288,3.78,2.998,3.78,3.232950689
3.79,3.286,3.79,3.050294902,3.79,3.227931064
3.8,3.295,3.8,3.197294902,3.8,3.224915177
3.81,3.304,3.81,3.370705098,3.81,3.212982256
3.82,3.298,3.82,3.521705098,3.82,3.214080945
3.83,3.293,3.83,3.593,3.83,3.22810054
3.84,3.29,3.84,3.525705098,3.84,3.218140151
3.85,3.278,3.85,3.377705098,3.85,3.22016005
3.86,3.279,3.86,3.174294902,3.86,3.202203579
3.87,3.293,3.87,3.000294902,3.87,3.178345719
3.88,3.283,3.88,2.963,3.88,3.198463917
3.89,3.285,3.89,3.160294902,3.89,3.337988885
3.9,3.267,3.9,3.403294902,3.9,3.430155731
3.91,3.243,3.91,3.448705098,3.91,3.289806868
3.92,3.263,3.92,3.403705098,3.92,3.09513244
3.93,3.403,3.93,3.437,3.93,3.071627546
3.94,3.496,3.94,3.461705098,3.94,3.154350929
3.95,3.356,3.95,3.361705098,3.95,3.205247753
3.96,3.161,3.96,3.195294902,3.96,3.224518475
3.97,3.137,3.97,3.062294902,3.97,3.240950553
3.98,3.219,3.98,3.005,3.98,3.24028678
3.99,3.269,3.99,3.066294902,3.99,3.243931105
4,3.288,4,3.202294902,4,3.229828433
4.01,3.305,4.01,3.380705098,4.01,3.222828321
4.02,3.305,4.02,3.524705098,4.02,3.216919073
4.03,3.309,4.03,3.586,4.03,3.220993932
4.04,3.295,4.04,3.536705098,4.04,3.229053178
4.05,3.288,4.05,3.389705098,4.05,3.232045359
4.06,3.282,4.06,3.195294902,4.06,3.223045552
4.07,3.286,4.07,3.036294902,4.07,3.21405744
4.08,3.294,4.08,2.971,4.08,3.206116575
4.09,3.297,4.09,3.034294902,4.09,3.212183522
4.1,3.288,4.1,3.187294902,4.1,3.215250647
4.11,3.279,4.11,3.394705098,4.11,3.237195314
4.12,3.271,4.12,3.565705098,4.12,3.258021594
4.13,3.277,4.13,3.627,4.13,3.261800618
4.14,3.28,4.14,3.557705098,4.14,3.249650843
4.15,3.302,4.15,3.395705098,4.15,3.237559961
4.16,3.323,4.16,3.206294902,4.16,3.233571542
4.17,3.327,4.17,3.055294902,4.17,3.232670107
4.18,3.315,4.18,2.994,4.18,3.228800486
4.19,3.303,4.19,3.041294902,4.19,3.218923041
4.2,3.299,4.2,3.186294902,4.2,3.214017817
4.21,3.298,4.21,3.371705098,4.21,3.214096703
4.22,3.294,4.22,3.533705098,4.22,3.226124231
4.23,3.284,4.23,3.593,4.23,3.228128279
4.24,3.279,4.24,3.528705098,4.24,3.221120566
4.25,3.279,4.25,3.376705098,4.25,3.219100857
4.26,3.291,4.26,3.200294902,4.26,3.228045356
4.27,3.293,4.27,3.047294902,4.27,3.225049308
4.28,3.286,4.28,2.98,4.28,3.215100823
4.29,3.284,4.29,3.048294902,4.29,3.226080983
4.3,3.293,4.3,3.201294902,4.3,3.229041356
4.31,3.29,4.31,3.379705098,4.31,3.222065189
4.32,3.28,4.32,3.534705098,4.32,3.227057364
4.33,3.291,4.33,3.588,4.33,3.223025685
4.34,3.294,4.34,3.532705098,4.34,3.225029598
4.35,3.287,4.35,3.399705098,4.35,3.241978191
4.36,3.292,4.36,3.217294902,4.36,3.244887367
4.37,3.288,4.37,3.049294902,4.37,3.226887667
4.38,3.29,4.38,2.995,4.38,3.229859989
4.39,3.307,4.39,3.042294902,4.39,3.219879551
4.4,3.31,4.4,3.194294902,4.4,3.22195843
4.41,3.292,4.41,3.377705098,4.41,3.220057259
4.42,3.295,4.42,3.534705098,4.42,3.227057166
4.43,3.285,4.43,3.598,4.43,3.233045375
4.44,3.287,4.44,3.539705098,4.44,3.231998046
4.45,3.285,4.45,3.379705098,4.45,3.221998191
4.46,3.292,4.46,3.195294902,4.46,3.222986252
4.47,3.298,4.47,3.051294902,4.47,3.22897819
4.48,3.297,4.48,2.993,4.48,3.227997953
4.49,3.287,4.49,3.040294902,4.49,3.218053435
4.5,3.288,4.5,3.190294902,4.5,3.218069195
4.51,3.294,4.51,3.380705098,4.51,3.223069034
4.52,3.293,4.52,3.529705098,4.52,3.222096684
4.53,3.283,4.53,3.59,4.53,3.225108625
4.54,3.283,4.54,3.529705098,4.54,3.222092867
4.55,3.288,4.55,3.386705098,4.55,3.229049346
4.56,3.287,4.56,3.201294902,4.56,3.229025672
4.57,3.29,4.57,3.038294902,4.57,3.216049476
4.58,3.287,4.58,2.986,4.58,3.221065233
4.59,3.294,4.59,3.051294902,4.59,3.229037399
4.6,3.294,4.6,3.200294902,4.6,3.228041386
4.61,3.281,4.61,3.392705098,4.61,3.235017818
4.62,3.286,4.62,3.539705098,4.62,3.231954654
4.63,3.294,4.63,3.586,4.63,3.220954703
4.64,3.293,4.64,3.518705098,4.64,3.21102582
4.65,3.3,4.65,3.339705098,4.65,3.182207495
4.66,3.297,4.66,3.149294902,4.66,3.177436389
4.67,3.286,4.67,3.106294902,4.67,3.284230123
4.68,3.276,4.68,3.183,4.68,3.417451584
4.69,3.247,4.69,3.162294902,4.69,3.338944207
4.7,3.242,4.7,3.115294902,4.7,3.142100628
4.71,3.349,4.71,3.237705098,4.71,3.079482316
4.72,3.483,4.72,3.445705098,4.72,3.138055478
4.73,3.405,4.73,3.561,4.73,3.196931612
4.74,3.208,4.74,3.525705098,4.74,3.219415324
4.75,3.145,4.75,3.395705098,4.75,3.239041208
4.76,3.203,4.76,3.216294902,4.76,3.244393441
4.77,3.261,4.77,3.059294902,4.77,3.237002289
4.78,3.283,4.78,3.001,4.78,3.235844227
4.79,3.303,4.79,3.048294902,4.79,3.225812502
4.8,3.309,4.8,3.206294902,4.8,3.233828129
4.81,3.302,4.81,3.384705098,4.81,3.226895322
4.82,3.301,4.82,3.532705098,4.82,3.224942739
4.83,3.291,4.83,3.593,4.83,3.227974355
4.84,3.299,4.84,3.518705098,4.84,3.211033621
4.85,3.292,4.85,3.368705098,4.85,3.211124461
4.86,3.29,4.86,3.194294902,4.86,3.222144029
4.87,3.293,4.87,3.046294902,4.87,3.224147933
4.88,3.276,4.88,2.996,4.88,3.231136265
4.89,3.276,4.89,3.061294902,4.89,3.239025706
4.9,3.287,4.9,3.212294902,4.9,3.239911173
4.91,3.289,4.91,3.404705098,4.91,3.246812464
4.92,3.296,4.92,3.546705098,4.92,3.238753281
4.93,3.304,4.93,3.596,4.93,3.230753296
4.94,3.305,4.94,3.542705098,4.94,3.234768987
4.95,3.312,4.95,3.385705098,4.95,3.227816301
4.96,3.304,4.96,3.192294902,4.96,3.219923029
4.97,3.296,4.97,3.041294902,4.97,3.219002012
4.98,3.3,4.98,2.991,4.98,3.226021594
4.99,3.293,4.99,3.050294902,4.99,3.228049277
5,3.285,5,3.190294902,5,3.218088959
5.01,3.284,5.01,3.375705098,5.01,3.218096863
5.02,3.291,5.02,3.529705098,5.02,3.222084862
5.03,3.293,5.03,3.582,5.03,3.217120409
5.04,3.283,5.04,3.536705098,5.04,3.22911647
5.05,3.283,5.05,3.388705098,5.05,3.231065136
5.06,3.287,5.06,3.202294902,5.06,3.230017804
5.07,3.282,5.07,3.047294902,5.07,3.225006077
5.08,3.294,5.08,2.998,5.08,3.232942717
5.09,3.296,5.09,3.058294902,5.09,3.235915027
5.1,3.295,5.1,3.209294902,5.1,3.23689139
5.11,3.29,5.11,3.382705098,5.11,3.224911307
5.12,3.298,5.12,3.522705098,5.12,3.214950774
5.13,3.301,5.13,3.577,5.13,3.212033577
5.14,3.302,5.14,3.529705098,5.14,3.222088669
5.15,3.29,5.15,3.389705098,5.15,3.23210843
5.16,3.28,5.16,3.201294902,5.16,3.229092839
5.17,3.277,5.17,3.040294902,5.17,3.218081183
5.18,3.287,5.18,2.983,5.18,3.218057371
5.19,3.297,5.19,3.058294902,5.19,3.236001788
5.2,3.294,5.2,3.208294902,5.2,3.235986053
5.21,3.283,5.21,3.383705098,5.21,3.225998192
5.22,3.283,5.22,3.532705098,5.22,3.224970568
5.23,3.301,5.23,3.585,5.23,3.21996248
5.24,3.301,5.24,3.525705098,5.24,3.218033524
5.25,3.291,5.25,3.379705098,5.25,3.222088818
5.26,3.29,5.26,3.199294902,5.26,3.227084828
5.27,3.285,5.27,3.050294902,5.27,3.228073057
5.28,3.283,5.28,2.976,5.28,3.211108785
5.29,3.287,5.29,3.050294902,5.29,3.228069102
5.3,3.292,5.3,3.211294902,5.3,3.23900179
5.31,3.293,5.31,3.387705098,5.31,3.229990117
5.32,3.276,5.32,3.530705098,5.32,3.223010145
5.33,3.293,5.33,3.592,5.33,3.226946731
5.34,3.304,5.34,3.535705098,5.34,3.227946572
5.35,3.295,5.35,3.384705098,5.35,3.226994056
5.36,3.288,5.36,3.190294902,5.36,3.218041579
5.37,3.292,5.37,3.044294902,5.37,3.22204543
5.38,3.293,5.38,2.982,5.38,3.217084893
5.39,3.292,5.39,3.052294902,5.39,3.230076898
5.4,3.283,5.4,3.194294902,5.4,3.222096795
5.41,3.287,5.41,3.331705098,5.41,3.174270908
5.42,3.282,5.42,3.490705098,5.42,3.183424699
5.43,3.295,5.43,3.646,5.43,3.281170827
5.44,3.287,5.44,3.725705098,5.44,3.417427811
5.45,3.239,5.45,3.513705098,5.45,3.354900716
5.46,3.248,5.46,3.118294902,5.46,3.14501373
5.47,3.346,5.47,2.902294902,5.47,3.079419284
5.48,3.483,5.48,2.898,5.48,3.133000292
5.49,3.421,5.49,3.012294902,5.49,3.19089992
5.5,3.211,5.5,3.195294902,5.5,3.224427053
5.51,3.145,5.51,3.390705098,5.51,3.234084643
5.52,3.198,5.52,3.551705098,5.52,3.244436924
5.53,3.255,5.53,3.614,5.53,3.248978537
5.54,3.288,5.54,3.548705098,5.54,3.240777048
5.55,3.298,5.55,3.384705098,5.55,3.226761305
5.56,3.309,5.56,3.200294902,5.56,3.227780856
5.57,3.314,5.57,3.064294902,5.57,3.241788494
5.58,3.306,5.58,2.99,5.58,3.224883476
5.59,3.292,5.59,3.032294902,5.59,3.210006159
5.6,3.293,5.6,3.179294902,5.6,3.207085011
5.61,3.307,5.61,3.374705098,5.61,3.217128098
5.62,3.29,5.62,3.527705098,5.62,3.220215069
5.63,3.275,5.63,3.594,5.63,3.229199409
5.64,3.272,5.64,3.541705098,5.64,3.234104704
5.65,3.282,5.65,3.394705098,5.65,3.236986223
5.66,3.285,5.66,3.211294902,5.66,3.238899378
5.67,3.294,5.67,3.066294902,5.67,3.243804535
5.68,3.299,5.68,3.014,5.68,3.24872552
5.69,3.302,5.69,3.060294902,5.69,3.237709836
5.7,3.304,5.7,3.198294902,5.7,3.225753353
5.71,3.309,5.71,3.392705098,5.71,3.234768934
5.72,3.314,5.72,3.531705098,5.72,3.223847866
5.73,3.303,5.73,3.59,5.73,3.224942719
5.74,3.291,5.74,3.526705098,5.74,3.219017838
5.75,3.3,5.75,3.363705098,5.75,3.206096792
5.76,3.289,5.76,3.187294902,5.76,3.21517571
5.77,3.29,5.77,3.046294902,5.77,3.22417556
5.78,3.284,5.78,2.991,5.78,3.22617171
5.79,3.271,5.79,3.050294902,5.79,3.22813636
5.8,3.28,5.8,3.205294902,5.8,3.233029674
5.81,3.289,5.81,3.381705098,5.81,3.22399416
5.82,3.291,5.82,3.527705098,5.82,3.220009977
5.83,3.293,5.83,3.591,5.83,3.226009851
5.84,3.298,5.84,3.540705098,5.84,3.232989984
5.85,3.289,5.85,3.379705098,5.85,3.222033633
5.86,3.285,5.86,3.184294902,5.86,3.212081152
5.87,3.291,5.87,3.042294902,5.87,3.220080948
5.88,3.298,5.88,2.99,5.88,3.225084731
5.89,3.287,5.89,3.051294902,5.89,3.229100639
5.9,3.277,5.9,3.211294902,5.9,3.239033591
5.91,3.285,5.91,3.386705098,5.91,3.228966541
5.92,3.29,5.92,3.533705098,5.92,3.225942875
5.93,3.294,5.93,3.596,5.93,3.230919055
5.94,3.304,5.94,3.539705098,5.94,3.231907088
5.95,3.294,5.95,3.389705098,5.95,3.231934846
5.96,3.291,5.96,3.200294902,5.96,3.227938868
5.97,3.296,5.97,3.043294902,5.97,3.220958609
5.98,3.297,5.98,2.984,5.98,3.219005949
5.99,3.297,5.99,3.040294902,5.99,3.218061172
6,3.293,6,3.200294902,6,3.228076894
6.01,3.286,6.01,3.385705098,6.01,3.228076975
6.02,3.284,6.02,3.534705098,6.02,3.227053375
6.03,3.283,6.03,3.591,6.03,3.226025771
6.04,3.293,6.04,3.535705098,6.04,3.227986173
6.05,3.293,6.05,3.389705098,6.05,3.231970347
6.06,3.292,6.06,3.203294902,6.06,3.230958541
6.07,3.291,6.07,3.054294902,6.07,3.231938829
6.08,3.293,6.08,2.985,6.08,3.219962597
6.09,3.297,6.09,3.040294902,6.09,3.21800203
6.1,3.296,6.1,3.198294902,6.1,3.226025583
6.11,3.297,6.11,3.374705098,6.11,3.217080906
6.12,3.285,6.12,3.527705098,6.12,3.220128393
6.13,3.283,6.13,3.595,6.13,3.230088815
6.14,3.291,6.14,3.539705098,6.14,3.232033484
6.15,3.282,6.15,3.388705098,6.15,3.231013908
6.16,3.285,6.16,3.197294902,6.16,3.224982372
6.17,3.295,6.17,3.021294902,6.17,3.199065377
6.18,3.297,6.18,2.93,6.18,3.165322144
6.19,3.296,6.19,2.997294902,6.19,3.175546845
6.2,3.29,6.2,3.277294902,6.2,3.305253472
6.21,3.264,6.21,3.596705098,6.21,3.438408113
6.22,3.23,6.22,3.650705098,6.22,3.341841877
6.23,3.24,6.23,3.501,6.23,3.134958751
6.24,3.37,6.24,3.385705098,6.24,3.077340046
6.25,3.504,6.25,3.295705098,6.25,3.137996019
6.26,3.408,6.26,3.164294902,6.26,3.192971072
6.27,3.201,6.27,3.048294902,6.27,3.227435051
6.28,3.143,6.28,3.001,6.28,3.237041238
6.29,3.203,6.29,3.063294902,6.29,3.241397452
6.3,3.257,6.3,3.210294902,6.3,3.238002311
6.31,3.291,6.31,3.392705098,6.31,3.234832297
6.32,3.301,6.32,3.537705098,6.32,3.229816435
6.33,3.306,6.33,3.597,6.33,3.231832127
6.34,3.303,6.34,3.532705098,6.34,3.224895348
6.35,3.3,6.35,3.375705098,6.35,3.217974377
6.36,3.295,6.36,3.184294902,6.36,3.212065216
6.37,3.297,6.37,3.035294902,6.37,3.213132234
6.38,3.29,6.38,2.996,6.38,3.231136055
6.39,3.283,6.39,3.054294902,6.39,3.232108519
6.4,3.277,6.4,3.204294902,6.4,3.232053421
6.41,3.278,6.41,3.395705098,6.41,3.237950752
6.42,3.296,6.42,3.542705098,6.42,3.234863771
6.43,3.297,6.43,3.603,6.43,3.237836132
6.44,3.297,6.44,3.555705098,6.44,3.247772883
6.45,3.303,6.45,3.404705098,6.45,3.246713656
6.46,3.3,6.46,3.208294902,6.46,3.235721733
6.47,3.303,6.47,3.054294902,6.47,3.231733563
6.48,3.313,6.48,2.989,6.48,3.223788725
6.49,3.312,6.49,3.036294902,6.49,3.213922982
6.5,3.301,6.5,3.182294902,6.5,3.210069108
6.51,3.297,6.51,3.373705098,6.51,3.21614797
6.52,3.289,6.52,3.529705098,6.52,3.222187449
6.53,3.279,6.53,3.591,6.53,3.22617966
6.54,3.275,6.54,3.533705098,6.54,3.22613238
6.55,3.281,6.55,3.395705098,6.55,3.23802172
6.56,3.287,6.56,3.199294902,6.56,3.226978363
6.57,3.291,6.57,3.040294902,6.57,3.217994237
6.58,3.291,6.58,2.997,6.58,3.231970364
6.59,3.303,6.59,3.053294902,6.59,3.230950482
6.6,3.292,6.6,3.196294902,6.6,3.224005983
6.61,3.283,6.61,3.378705098,6.61,3.221029777
6.62,3.297,6.62,3.525705098,6.62,3.218029618
6.63,3.296,6.63,3.586,6.63,3.221072992
6.64,3.289,6.64,3.541705098,6.64,3.234061092
6.65,3.286,6.65,3.391705098,6.65,3.234021688
6.66,3.283,6.66,3.192294902,6.66,3.220025864
6.67,3.286,6.67,3.044294902,6.67,3.222010013
6.68,3.299,6.68,2.987,6.68,3.222005861
6.69,3.299,6.69,3.041294902,6.69,3.219065095
6.7,3.285,6.7,3.193294902,6.7,3.221116527
6.71,3.287,6.71,3.388705098,6.71,3.231072987
6.72,3.287,6.72,3.540705098,6.72,3.233029577
6.73,3.284,6.73,3.592,6.73,3.227009984
6.74,3.286,6.74,3.527705098,6.74,3.220006088
6.75,3.296,6.75,3.377705098,6.75,3.220009891
6.76,3.298,6.76,3.198294902,6.76,3.22602951
6.77,3.292,6.77,3.048294902,6.77,3.226057205
6.78,3.285,6.78,2.994,6.78,3.229049387
6.79,3.285,6.79,3.051294902,6.79,3.229013873
6.8,3.291,6.8,3.197294902,6.8,3.224994129
6.81,3.291,6.81,3.389705098,6.81,3.231970379
6.82,3.294,6.82,3.534705098,6.82,3.226966437
6.83,3.294,6.83,3.591,6.83,3.225978313
6.84,3.29,6.84,3.528705098,6.84,3.221009952
6.85,3.297,6.85,3.369705098,6.85,3.212061256
6.86,3.292,6.86,3.196294902,6.86,3.224092733
6.87,3.291,6.87,3.058294902,6.87,3.23605708
6.88,3.286,6.88,3.003,6.88,3.238009826
6.89,3.277,6.89,3.049294902,6.89,3.226986411
6.9,3.289,6.9,3.202294902,6.9,3.229915216
6.91,3.301,6.91,3.380705098,6.91,3.222919051
6.92,3.303,6.92,3.535705098,6.92,3.227950558
6.93,3.292,6.93,3.591,6.93,3.225998026
6.94,3.295,6.94,3.512705098,6.94,3.205085037
6.95,3.288,6.95,3.375705098,6.95,3.218132314
6.96,3.293,6.96,3.194294902,6.96,3.222136082
6.97,3.291,6.97,3.009294902,6.97,3.187298307
6.98,3.27,6.98,2.943,6.98,3.178488032
6.99,3.283,6.99,3.116294902,6.99,3.294135371
7,3.287,7,3.405294902,7,3.432285587
7.01,3.252,7.01,3.488705098,7.01,3.329857481
7.02,3.243,7.02,3.425705098,7.02,3.117132492
7.03,3.359,7.03,3.432,7.03,3.066569086
7.04,3.498,7.04,3.446705098,7.04,3.139177512
7.05,3.396,7.05,3.354705098,7.05,3.198109225
7.06,3.183,7.06,3.207294902,7.06,3.236490418
7.07,3.132,7.07,3.071294902,7.07,3.249974177
7.08,3.204,7.08,3.012,7.08,3.247263262
7.09,3.262,7.09,3.056294902,7.09,3.233887918
7.1,3.3,7.1,3.200294902,7.1,3.227765204
7.11,3.314,7.11,3.394705098,7.11,3.236757005
7.12,3.312,7.12,3.537705098,7.12,3.229832055
7.13,3.299,7.13,3.595,7.13,3.22989932
7.14,3.293,7.14,3.535705098,7.14,3.22792305
7.15,3.302,7.15,3.378705098,7.15,3.220950642
7.16,3.295,7.16,3.184294902,7.16,3.212049448
7.17,3.295,7.17,3.056294902,7.17,3.234033408
7.18,3.293,7.18,2.992,7.18,3.227045316
7.19,3.286,7.19,3.042294902,7.19,3.220077126
7.2,3.277,7.2,3.194294902,7.2,3.22207322
7.21,3.299,7.21,3.381705098,7.21,3.224025574
7.22,3.292,7.22,3.549705098,7.22,3.241993916
7.23,3.285,7.23,3.612,7.23,3.246915044
7.24,3.287,7.24,3.555705098,7.24,3.247804604
7.25,3.289,7.25,3.405705098,7.25,3.247702002
7.26,3.307,7.26,3.217294902,7.26,3.244618966
7.27,3.312,7.27,3.051294902,7.27,3.228670366
7.28,3.313,7.28,2.982,7.28,3.216788832
7.29,3.313,7.29,3.037294902,7.29,3.214918995
7.3,3.31,7.3,3.190294902,7.3,3.21803733
7.31,3.294,7.31,3.369705098,7.31,3.212167785
7.32,3.282,7.32,3.520705098,7.32,3.213231056
7.33,3.28,7.33,3.59,7.33,3.225199364
7.34,3.283,7.34,3.536705098,7.34,3.22914406
7.35,3.277,7.35,3.377705098,7.35,3.220136379
7.36,3.278,7.36,3.192294902,7.36,3.220104808
7.37,3.29,7.37,3.055294902,7.37,3.233025583
7.38,3.294,7.38,2.996,7.38,3.231001893
7.39,3.285,7.39,3.052294902,7.39,3.229998113
7.4,3.285,7.4,3.200294902,7.4,3.227966552
7.41,3.298,7.41,3.379705098,7.41,3.221958569
7.42,3.296,7.42,3.525705098,7.42,3.218017809
7.43,3.295,7.43,3.591,7.43,3.226037442
7.44,3.293,7.44,3.536705098,7.44,3.22904137
7.45,3.287,7.45,3.384705098,7.45,3.227045442
7.46,3.283,7.46,3.197294902,7.46,3.225033678
7.47,3.291,7.47,3.052294902,7.47,3.229986175
7.48,3.294,7.48,2.981,7.48,3.216025737
7.49,3.292,7.49,3.047294902,7.49,3.225041466
7.5,3.29,7.5,3.198294902,7.5,3.226045368
7.51,3.295,7.51,3.381705098,7.51,3.224049322
7.52,3.281,7.52,3.534705098,7.52,3.227061288
7.53,3.29,7.53,3.593,7.53,3.228013817
7.54,3.291,7.54,3.535705098,7.54,3.228001982
7.55,3.289,7.55,3.379705098,7.55,3.222017852
7.56,3.292,7.56,3.178294902,7.56,3.206089003
7.57,3.293,7.57,3.048294902,7.57,3.226092701
7.58,3.293,7.58,2.997,7.58,3.232076802
7.59,3.287,7.59,3.059294902,7.59,3.237041401
7.6,3.271,7.6,3.211294902,7.6,3.238974502
7.61,3.291,7.61,3.388705098,7.61,3.230875728
7.62,3.297,7.62,3.537705098,7.62,3.229859889
7.63,3.302,7.63,3.587,7.63,3.221899337
7.64,3.304,7.64,3.518705098,7.64,3.211002014
7.65,3.296,7.65,3.392705098,7.65,3.235017606
7.66,3.295,7.66,3.198294902,7.66,3.226037407
7.67,3.287,7.67,3.038294902,7.67,3.216092943
7.68,3.276,7.68,2.989,7.68,3.224085042
7.69,3.3,7.69,3.047294902,7.69,3.225029483
7.7,3.291,7.7,3.198294902,7.7,3.226065126
7.71,3.281,7.71,3.379705098,7.71,3.222081065
7.72,3.289,7.72,3.528705098,7.72,3.221061257
7.73,3.29,7.73,3.591,7.73,3.226053285
7.74,3.291,7.74,3.541705098,7.74,3.23401768
7.75,3.287,7.75,3.381705098,7.75,3.224025744
7.76,3.286,7.76,3.160294902,7.76,3.188160307
7.77,3.291,7.77,2.997294902,7.77,3.175341828
7.78,3.299,7.78,3.015,7.78,3.250246122
7.79,3.289,7.79,3.219294902,7.79,3.396601565
7.8,3.253,7.8,3.356294902,7.8,3.382971161
7.81,3.24,7.81,3.344705098,7.81,3.185977832
7.82,3.315,7.82,3.381705098,7.82,3.073376441
7.83,3.462,7.83,3.484,7.83,3.118890345
7.84,3.449,7.84,3.494705098,7.84,3.187718071
7.85,3.252,7.85,3.376705098,7.85,3.220371328
7.86,3.139,7.86,3.206294902,7.86,3.235187285
7.87,3.184,7.87,3.047294902,7.87,3.22559115
7.88,3.252,7.88,2.994,7.88,3.229156335
7.89,3.284,7.89,3.062294902,7.89,3.239946686
7.9,3.299,7.9,3.208294902,7.9,3.235879502
7.91,3.29,7.91,3.401705098,7.91,3.243840107
7.92,3.294,7.92,3.552705098,7.92,3.244761116
7.93,3.305,7.93,3.599,7.93,3.233741409
7.94,3.301,7.94,3.525705098,7.94,3.217828422
7.95,3.309,7.95,3.372705098,7.95,3.21491117
7.96,3.31,7.96,3.182294902,7.96,3.210045305
7.97,3.299,7.97,3.040294902,7.97,3.218151879
7.98,3.283,7.98,2.992,7.98,3.227179575
7.99,3.28,7.99,3.045294902,7.99,3.223159961
8,3.275,8,3.206294902,8,3.234084967
8.01,3.283,8.01,3.403705098,8.01,3.245942687
8.02,3.292,8.02,3.565705098,8.02,3.257784682
8.03,3.288,8.03,3.619,8.03,3.253678281
8.04,3.299,8.04,3.541705098,8.04,3.233634998
8.05,3.311,8.05,3.382705098,8.05,3.224670433
8.06,3.323,8.06,3.201294902,8.06,3.22873725
8.07,3.319,8.07,3.051294902,8.07,3.228851698
8.08,3.299,8.08,2.987,8.08,3.221978286
8.09,3.29,8.09,3.039294902,8.09,3.217045513
8.1,3.294,8.1,3.181294902,8.1,3.209108651
8.11,3.294,8.11,3.374705098,8.11,3.217155898
8.12,3.287,8.12,3.536705098,8.12,3.229155829
8.13,3.282,8.13,3.592,8.13,3.22713622
8.14,3.274,8.14,3.522705098,8.14,3.21514437
8.15,3.282,8.15,3.371705098,8.15,3.21412454
8.16,3.294,8.16,3.186294902,8.16,3.214136191
8.17,3.292,8.17,3.045294902,8.17,3.223159799
8.18,3.28,8.18,2.995,8.18,3.230148032
8.19,3.279,8.19,3.052294902,8.19,3.230088896
8.2,3.279,8.2,3.211294902,8.2,3.238990184
8.21,3.288,8.21,3.394705098,8.21,3.236899348
8.22,3.295,8.22,3.542705098,8.22,3.234851975
8.23,3.295,8.23,3.593,8.23,3.227859924
8.24,3.304,8.24,3.536705098,8.24,3.228863747
8.25,3.302,8.25,3.370705098,8.25,3.212966497
8.26,3.3,8.26,3.184294902,8.26,3.212065176
8.27,3.293,8.27,3.049294902,8.27,3.227096602
8.28,3.294,8.28,2.99,8.28,3.225108459
8.29,3.278,8.29,3.046294902,8.29,3.224128443
8.3,3.277,8.3,3.194294902,8.3,3.222092946
8.31,3.292,8.31,3.380705098,8.31,3.223049356
8.32,3.29,8.32,3.539705098,8.32,3.232029551
8.33,3.289,8.33,3.597,8.33,3.232001951
8.34,3.287,8.34,3.528705098,8.34,3.22101396
8.35,3.288,8.35,3.369705098,8.35,3.212053489
8.36,3.297,8.36,3.193294902,8.36,3.221061137
8.37,3.297,8.37,3.055294902,8.37,3.233057041
8.38,3.286,8.38,3.001,8.38,3.236041399
8.39,3.277,8.39,3.044294902,8.39,3.222037746
8.4,3.286,8.4,3.203294902,8.4,3.230962581
8.41,3.298,8.41,3.382705098,8.41,3.224946666
8.42,3.301,8.42,3.543705098,8.42,3.235934724
8.43,3.287,8.43,3.595,8.43,3.229958596
8.44,3.296,8.44,3.527705098,8.44,3.219966532
8.45,3.29,8.45,3.372705098,8.45,3.21502975
8.46,3.301,8.46,3.186294902,8.46,3.214072998
8.47,3.295,8.47,3.050294902,8.47,3.228104474
8.48,3.285,8.48,2.997,8.48,3.23209666
8.49,3.28,8.49,3.052294902,8.49,3.23005734
8.5,3.279,8.5,3.188294902,8.5,3.216053557
8.51,3.293,8.51,3.380705098,8.51,3.223017797
8.52,3.297,8.52,3.518705098,8.52,3.211084899
8.53,3.295,8.53,3.543,8.53,3.178298363
8.54,3.281,8.54,3.491705098,8.54,3.184479902
8.55,3.288,8.55,3.481705098,8.55,3.324052116
8.56,3.276,8.56,3.395294902,8.56,3.422262183
8.57,3.243,8.57,3.124294902,8.57,3.300905347
8.58,3.249,8.58,2.884,8.58,3.118140235
8.59,3.389,8.59,2.903294902,8.59,3.080544811
8.6,3.488,8.6,3.128294902,8.6,3.156205098
8.61,3.367,8.61,3.366705098,8.61,3.210050312
8.62,3.184,8.62,3.531705098,8.62,3.225360376
8.63,3.146,8.63,3.597,8.63,3.232915039
8.64,3.221,8.64,3.540705098,8.64,3.233314447
8.65,3.274,8.65,3.395705098,8.65,3.23799026
8.66,3.289,8.66,3.206294902,8.66,3.233891486
8.67,3.297,8.67,3.059294902,8.67,3.236840087
8.68,3.298,8.68,3.002,8.68,3.236820329
8.69,3.303,8.69,3.046294902,8.69,3.223855931
8.7,3.299,8.7,3.196294902,8.7,3.223911211
8.71,3.302,8.71,3.380705098,8.71,3.222954537
8.72,3.302,8.72,3.529705098,8.72,3.222013741
8.73,3.289,8.73,3.584,8.73,3.21908494
8.74,3.289,8.74,3.520705098,8.74,3.2131284
8.75,3.288,8.75,3.383705098,8.75,3.226120373
8.76,3.287,8.76,3.218294902,8.76,3.246029409
8.77,3.284,8.77,3.065294902,8.77,3.242946677
8.78,3.278,8.78,3.009,8.78,3.243848165
8.79,3.291,8.79,3.070294902,8.79,3.24770985
8.8,3.311,8.8,3.217294902,8.8,3.244634689
8.81,3.308,8.81,3.392705098,8.81,3.234678244
8.82,3.309,8.82,3.535705098,8.82,3.227737473
8.83,3.313,8.83,3.572,8.83,3.206883594
8.84,3.31,8.84,3.519705098,8.84,3.212025593
8.85,3.3,8.85,3.370705098,8.85,3.213151882
8.86,3.293,8.86,3.189294902,8.86,3.217222977
8.87,3.272,8.87,3.049294902,8.87,3.227227064
8.88,3.277,8.88,2.996,8.88,3.231132287
8.89,3.278,8.89,3.047294902,8.89,3.225081083
8.9,3.282,8.9,3.198294902,8.9,3.22602974
8.91,3.292,8.91,3.388705098,8.91,3.230974307
8.92,3.296,8.92,3.532705098,8.92,3.224982224
8.93,3.29,8.93,3.592,8.93,3.226998072
8.94,3.291,8.94,3.533705098,8.94,3.225994099
8.95,3.296,8.95,3.369705098,8.95,3.212049437
8.96,3.29,8.96,3.195294902,8.96,3.223080948
8.97,3.292,8.97,3.058294902,8.97,3.236037336
8.98,3.291,8.98,2.987,8.98,3.222057278
8.99,3.277,8.99,3.047294902,8.99,3.225061395
9,3.288,9,3.203294902,9,3.230986175
9.01,3.301,9.01,3.390705098,9.01,3.23294657
9.02,3.287,9.02,3.526705098,9.02,3.219013976
9.03,3.29,9.03,3.584,9.03,3.219025778
9.04,3.296,9.04,3.533705098,9.04,3.226021633
9.05,3.298,9.05,3.387705098,9.05,3.230025525
9.06,3.284,9.06,3.211294902,9.06,3.239001949
9.07,3.284,9.07,3.052294902,9.07,3.229958654
9.08,3.291,9.08,2.988,9.08,3.222942894
9.09,3.295,9.09,3.043294902,9.09,3.220962553
9.1,3.304,9.1,3.196294902,9.1,3.223986069
9.11,3.295,9.11,3.382705098,9.11,3.225041399
9.12,3.288,9.12,3.526705098,9.12,3.219084958
9.13,3.286,9.13,3.592,9.13,3.227069116
9.14,3.289,9.14,3.537705098,9.14,3.230033517
9.15,3.29,9.15,3.379705098,9.15,3.222041517
9.16,3.284,9.16,3.190294902,9.16,3.218069252
9.17,3.292,9.17,3.049294902,9.17,3.227037465
9.18,3.295,9.18,2.994,9.18,3.229029511
9.19,3.287,9.19,3.041294902,9.19,3.219073148
9.2,3.283,9.2,3.193294902,9.2,3.221077119
9.21,3.292,9.21,3.386705098,9.21,3.229033489
9.22,3.294,9.22,3.538705098,9.22,3.231017679
9.23,3.284,9.23,3.593,9.23,3.228021803
9.24,3.286,9.24,3.532705098,9.24,3.224998138
9.25,3.294,9.25,3.384705098,9.25,3.226974337
9.26,3.296,9.26,3.191294902,9.26,3.219013844
9.27,3.293,9.27,3.039294902,9.27,3.217069146
9.28,3.29,9.28,2.996,9.28,3.231057165
9.29,3.292,9.29,3.056294902,9.29,3.234021601
9.3,3.284,9.3,3.197294902,9.3,3.225029736
9.31,3.282,9.31,3.344705098,9.31,3.187156415
9.32,3.296,9.32,3.477705098,9.32,3.170341826
9.33,3.299,9.33,3.605,9.33,3.240305404
9.34,3.29,9.34,3.703705098,9.34,3.395664672
9.35,3.252,9.35,3.552705098,9.35,3.393994695
9.36,3.235,9.36,3.168294902,9.36,3.194962019
9.37,3.305,9.37,2.898294902,9.37,3.07533318
9.38,3.461,9.38,2.874,9.38,3.108847087
9.39,3.46,9.39,3.002294902,9.39,3.180698288
9.4,3.261,9.4,3.193294902,9.4,3.222386942
9.41,3.141,9.41,3.379705098,9.41,3.223286007
9.42,3.174,9.42,3.539705098,9.42,3.232670116
9.43,3.245,9.43,3.615,9.43,3.250112749
9.44,3.286,9.44,3.546705098,9.44,3.238879638
9.45,3.287,9.45,3.394705098,9.45,3.236816579
9.46,3.297,9.46,3.208294902,9.46,3.235761178
9.47,3.315,9.47,3.053294902,9.47,3.230764966
9.48,3.304,9.48,2.995,9.48,3.229844013
9.49,3.302,9.49,3.034294902,9.49,3.211950736
9.5,3.301,9.5,3.188294902,9.5,3.216033559
9.51,3.296,9.51,3.377705098,9.51,3.220096636
9.52,3.295,9.52,3.516705098,9.52,3.209183595
9.53,3.277,9.53,3.573,9.53,3.208270629
9.54,3.281,9.54,3.531705098,9.54,3.224223022
9.55,3.285,9.55,3.394705098,9.55,3.23713999
9.56,3.274,9.56,3.224294902,9.56,3.252013769
9.57,3.273,9.57,3.085294902,9.57,3.262800646
9.58,3.289,9.58,3.021,9.58,3.255611196
9.59,3.302,9.59,3.073294902,9.59,3.250504596
9.6,3.317,9.6,3.206294902,9.6,3.233516399
9.61,3.328,9.61,3.378705098,9.61,3.220638702
9.62,3.321,9.62,3.523705098,9.62,3.215824213
9.63,3.316,9.63,3.58,9.63,3.214986011
9.64,3.299,9.64,3.521705098,9.64,3.214132196
9.65,3.286,9.65,3.370705098,9.65,3.213215215
9.66,3.281,9.66,3.183294902,9.66,3.211254746
9.67,3.28,9.67,3.048294902,9.67,3.226215142
9.68,3.279,9.68,2.994,9.68,3.22915988
9.69,3.278,9.69,3.051294902,9.69,3.229100769
9.7,3.276,9.7,3.197294902,9.7,3.225053488
9.71,3.291,9.71,3.381705098,9.71,3.224002028
9.72,3.294,9.72,3.530705098,9.72,3.223013824
9.73,3.294,9.73,3.586,9.73,3.221045408
9.74,3.29,9.74,3.533705098,9.74,3.226057236
9.75,3.289,9.75,3.384705098,9.75,3.22704934
9.76,3.288,9.76,3.201294902,9.76,3.229029624
9.77,3.286,9.77,3.040294902,9.77,3.218049491
9.78,3.291,9.78,2.989,9.78,3.224037538
9.79,3.292,9.79,3.054294902,9.79,3.232013726
9.8,3.294,9.8,3.203294902,9.8,3.230997964
9.81,3.283,9.81,3.376705098,9.81,3.2190377
9.82,3.289,9.82,3.536705098,9.82,3.228994112
9.83,3.297,9.83,3.595,9.83,3.229970291
9.84,3.296,9.84,3.535705098,9.84,3.227986154
9.85,3.284,9.85,3.375705098,9.85,3.218037687
9.86,3.294,9.86,3.196294902,9.86,3.224017769
9.87,3.295,9.87,3.059294902,9.87,3.236986021
9.88,3.293,9.88,2.996,9.88,3.230982194
9.89,3.283,9.89,3.038294902,9.89,3.21602986
9.9,3.289,9.9,3.187294902,9.9,3.215041601
9.91,3.302,9.91,3.381705098,9.91,3.224041301
9.92,3.296,9.92,3.540705098,9.92,3.233057068
9.93,3.281,9.93,3.586,9.93,3.221096862
9.94,3.28,9.94,3.532705098,9.94,3.225061348
9.95,3.289,9.95,3.388705098,9.95,3.230997998
9.96,3.298,9.96,3.210294902,9.96,3.237942608
9.97,3.286,9.97,3.041294902,9.97,3.218998206
9.98,3.29,9.98,2.99,9.98,3.224982333
9.99,3.296,9.99,3.054294902,9.99,3.231954493
10,3.303,10,3.190294902,10,3.218005889
10.01,3.284,10.01,3.379705098,10.01,3.222069218
10.02,3.29,10.02,3.535705098,10.02,3.228033516
10.03,3.297,10.03,3.599,10.03,3.233997889
10.04,3.283,10.04,3.527705098,10.04,3.220045567
10.05,3.287,10.05,3.373705098,10.05,3.21605347
10.06,3.293,10.06,3.200294902,10.06,3.228029541
10.07,3.299,10.07,3.047294902,10.07,3.225041336
10.08,3.285,10.08,2.988,10.08,3.223084971
10.09,3.281,10.09,3.045294902,10.09,3.22307316
10.1,3.293,10.1,3.211294902,10.1,3.238982099
10.11,3.29,10.11,3.359705098,10.11,3.20208511
10.12,3.288,10.12,3.480705098,10.12,3.173290661
10.13,3.288,10.13,3.623,10.13,3.258151516
10.14,3.304,10.14,3.722705098,10.14,3.41439207
10.15,3.267,10.15,3.528705098,10.15,3.36987253
10.16,3.238,10.16,3.125294902,10.16,3.15206902
10.17,3.323,10.17,2.877294902,10.17,3.054534298
10.18,3.48,10.18,2.885,10.18,3.12007544
10.19,3.436,10.19,3.008294902,10.19,3.186978593
10.2,3.218,10.2,3.196294902,10.2,3.225561078
10.21,3.12,10.21,3.399705098,10.21,3.243211093
10.22,3.185,10.22,3.542705098,10.22,3.235500308
10.23,3.251,10.23,3.605,10.23,3.240026057
10.24,3.289,10.24,3.553705098,10.24,3.245788777
10.25,3.307,10.25,3.390705098,10.25,3.232753218
10.26,3.3,10.26,3.197294902,10.26,3.224820475
10.27,3.305,10.27,3.052294902,10.27,3.229840036
10.28,3.311,10.28,2.991,10.28,3.225895225
10.29,3.298,10.29,3.046294902,10.29,3.223982225
10.3,3.29,10.3,3.189294902,10.3,3.217045501
10.31,3.295,10.31,3.378705098,10.31,3.221061177
10.32,3.291,10.32,3.527705098,10.32,3.220100665
10.33,3.289,10.33,3.588,10.33,3.223112514
10.34,3.282,10.34,3.537705098,10.34,3.230088843
10.35,3.286,10.35,3.398705098,10.35,3.240994001
10.36,3.285,10.36,3.216294902,10.36,3.243903261
10.37,3.288,10.37,3.082294902,10.37,3.259745274
10.38,3.295,10.38,3.019,10.38,3.253622949
10.39,3.306,10.39,3.063294902,10.39,3.240579614
10.4,3.309,10.4,3.195294902,10.4,3.22265075
10.41,3.325,10.41,3.374705098,10.41,3.216757106
10.42,3.319,10.42,3.521705098,10.42,3.213938642
10.43,3.306,10.43,3.578,10.43,3.213100562
10.44,3.288,10.44,3.521705098,10.44,3.214207285
10.45,3.282,10.45,3.380705098,10.45,3.22320726
10.46,3.279,10.46,3.202294902,10.46,3.230155935
10.47,3.278,10.47,3.045294902,10.47,3.223120546
10.48,3.279,10.48,2.987,10.48,3.222085054
10.49,3.288,10.49,3.049294902,10.49,3.227033571
10.5,3.295,10.5,3.190294902,10.5,3.218053314
10.51,3.288,10.51,3.375705098,10.51,3.218100761
10.52,3.287,10.52,3.533705098,10.52,3.226088813
10.53,3.292,10.53,3.603,10.53,3.238025509
10.54,3.283,10.54,3.536705098,10.54,3.22901785
10.55,3.283,10.55,3.382705098,10.55,3.224990312
10.56,3.291,10.56,3.199294902,10.56,3.226954643
10.57,3.303,10.57,3.051294902,10.57,3.228942637
10.58,3.294,10.58,2.983,10.58,3.218021779
10.59,3.29,10.59,3.039294902,10.59,3.217069187
10.6,3.292,10.6,3.199294902,10.6,3.227061124
10.61,3.294,10.61,3.384705098,10.61,3.227061107
10.62,3.283,10.62,3.536705098,10.62,3.229061254
10.63,3.282,10.63,3.6,10.63,3.234994121
10.64,3.292,10.64,3.531705098,10.64,3.223966509
10.65,3.292,10.65,3.378705098,10.65,3.220990234
10.66,3.294,10.66,3.205294902,10.66,3.232966364
10.67,3.3,10.67,3.048294902,10.67,3.225978203
10.68,3.289,10.68,2.987,10.68,3.222029713
10.69,3.286,10.69,3.037294902,10.69,3.215065294
10.7,3.298,10.7,3.198294902,10.7,3.226045299
10.71,3.291,10.71,3.401705098,10.71,3.244001769
10.72,3.287,10.72,3.530705098,10.72,3.223013924
10.73,3.28,10.73,3.588,10.73,3.223010118
10.74,3.291,10.74,3.531705098,10.74,3.223974374
10.75,3.309,10.75,3.388705098,10.75,3.230954378
10.76,3.288,10.76,3.210294902,10.76,3.237978229
10.77,3.288,10.77,3.045294902,10.77,3.222978414
10.78,3.289,10.78,2.985,10.78,3.219990289
10.79,3.296,10.79,3.044294902,10.79,3.221998014
10.8,3.303,10.8,3.198294902,10.8,3.226017618
10.81,3.288,10.81,3.384705098,10.81,3.227061195
10.82,3.285,10.82,3.529705098,10.82,3.222065242
10.83,3.287,10.83,3.586,10.83,3.221061283
10.84,3.291,10.84,3.532705098,10.84,3.225049338
10.85,3.292,10.85,3.386705098,10.85,3.229037448
10.86,3.287,10.86,3.194294902,10.86,3.222057324
10.87,3.286,10.87,3.041294902,10.87,3.219069215
10.88,3.29,10.88,2.984,10.88,3.219077029
10.89,3.294,10.89,3.016294902,10.89,3.19419955
10.9,3.287,10.9,3.150294902,10.9,3.17840102
10.91,3.284,10.91,3.377705098,10.91,3.220408407
10.92,3.284,10.92,3.688705098,10.92,3.380767506
10.93,3.259,10.93,3.775,10.93,3.409014098
10.94,3.243,10.94,3.530705098,10.94,3.22190242
10.95,3.285,10.95,3.230705098,10.95,3.072317738
10.96,3.446,10.96,3.062294902,10.96,3.089827826
10.97,3.475,10.97,2.998294902,10.97,3.17663499
10.98,3.288,10.98,2.985,10.98,3.221386565
10.99,3.138,10.99,3.057294902,10.99,3.236341143
11,3.155,11,3.215294902,11,3.243670224
11.01,3.241,11.01,3.394705098,11.01,3.237089311
11.02,3.285,11.02,3.545705098,11.02,3.237844181
11.03,3.3,11.03,3.604,11.03,3.238769
11.04,3.308,11.04,3.540705098,11.04,3.23277687
11.05,3.302,11.05,3.395705098,11.05,3.237796617
11.06,3.303,11.06,3.205294902,11.06,3.232812417
11.07,3.304,11.07,3.050294902,11.07,3.227851936
11.08,3.298,11.08,2.983,11.08,3.217934943
11.09,3.303,11.09,3.045294902,11.09,3.222974271
11.1,3.298,11.1,3.195294902,11.1,3.223033479
11.11,3.293,11.11,3.386705098,11.11,3.229049283
11.12,3.283,11.12,3.535705098,11.12,3.228049408
11.13,3.288,11.13,3.579,11.13,3.214065301
11.14,3.288,11.14,3.529705098,11.14,3.222069152
11.15,3.294,11.15,3.395705098,11.15,3.238009679
11.16,3.293,11.16,3.215294902,11.16,3.242954445
11.17,3.279,11.17,3.068294902,11.17,3.245883614
11.18,3.287,11.18,3.002,11.18,3.236792875
11.19,3.303,11.19,3.057294902,11.19,3.234741423
11.2,3.308,11.2,3.201294902,11.2,3.2287769
11.21,3.311,11.21,3.373705098,11.21,3.215883529
11.22,3.302,11.22,3.515705098,11.22,3.208033625
11.23,3.3,11.23,3.575,11.23,3.21014011
11.24,3.294,11.24,3.521705098,11.24,3.214222974
11.25,3.281,11.25,3.386705098,11.25,3.229222984
11.26,3.273,11.26,3.197294902,11.26,3.225187626
11.27,3.275,11.27,3.061294902,11.27,3.239065198
11.28,3.279,11.28,2.998,11.28,3.232974442
11.29,3.294,11.29,3.042294902,11.29,3.219950786
11.3,3.29,11.3,3.197294902,11.3,3.224966526
11.31,3.304,11.31,3.387705098,11.31,3.229946537
11.32,3.298,11.32,3.535705098,11.32,3.22799006
11.33,3.285,11.33,3.584,11.33,3.219045559
11.34,3.29,11.34,3.531705098,11.34,3.224029652
11.35,3.295,11.35,3.382705098,11.35,3.225029551
11.36,3.293,11.36,3.205294902,11.36,3.23301768
11.37,3.284,11.37,3.046294902,11.37,3.224033664
11.38,3.289,11.38,2.984,11.38,3.219033686
11.39,3.29,11.39,3.049294902,11.39,3.227021712
11.4,3.298,11.4,3.202294902,11.4,3.230001848
11.41,3.289,11.41,3.386705098,11.41,3.229017782
11.42,3.284,11.42,3.536705098,11.42,3.228998118
11.43,3.292,11.43,3.591,11.43,3.225970431
11.44,3.295,11.44,3.528705098,11.44,3.220994121
11.45,3.294,11.45,3.375705098,11.45,3.218041499
11.46,3.294,11.46,3.202294902,11.46,3.23003741
11.47,3.291,11.47,3.052294902,11.47,3.230033494
11.48,3.286,11.48,2.992,11.48,3.227029687
11.49,3.283,11.49,3.044294902,11.49,3.222025819
11.5,3.295,11.5,3.201294902,11.5,3.228982192
11.51,3.295,11.51,3.388705098,11.51,3.230978209
11.52,3.292,11.52,3.535705098,11.52,3.227986198
11.53,3.287,11.53,3.597,11.53,3.231966489
11.54,3.294,11.54,3.532705098,11.54,3.224954631
11.55,3.296,11.55,3.374705098,11.55,3.217002055
11.56,3.293,11.56,3.195294902,11.56,3.22303356
11.57,3.297,11.57,3.050294902,11.57,3.228033436
11.58,3.29,11.58,2.986,11.58,3.221077023
11.59,3.282,11.59,3.050294902,11.59,3.22806522
11.6,3.288,11.6,3.197294902,11.6,3.225033587
11.61,3.293,11.61,3.377705098,11.61,3.22004545
11.62,3.286,11.62,3.534705098,11.62,3.227049386
11.63,3.293,11.63,3.582,11.63,3.217065175
11.64,3.29,11.64,3.520705098,11.64,3.213124464
11.65,3.285,11.65,3.344705098,11.65,3.187274681
11.66,3.292,11.66,3.162294902,11.66,3.190392922
11.67,3.282,11.67,3.109294902,11.67,3.287155193
11.68,3.278,11.68,3.162,11.68,3.396443937
11.69,3.252,11.69,3.155294902,11.69,3.331971839
11.7,3.255,11.7,3.126294902,11.7,3.153104222
11.71,3.352,11.71,3.240705098,11.71,3.082525641
11.72,3.462,11.72,3.445705098,11.72,3.138111009
11.73,3.398,11.73,3.565,11.73,3.200888254
11.74,3.219,11.74,3.538705098,11.74,3.232292746
11.75,3.148,11.75,3.384705098,11.75,3.228005796
11.76,3.203,11.76,3.205294902,11.76,3.23341333
11.77,3.265,11.77,3.067294902,11.77,3.244990267
11.78,3.296,11.78,2.996,11.78,3.230867768
11.79,3.292,11.79,3.053294902,11.79,3.230867854
11.8,3.298,11.8,3.210294902,11.8,3.237824246
11.81,3.31,11.81,3.385705098,11.81,3.22784395
11.82,3.296,11.82,3.536705098,11.82,3.228907257
11.83,3.296,11.83,3.589,11.83,3.223934885
11.84,3.303,11.84,3.528705098,11.84,3.220974301
11.85,3.293,11.85,3.377705098,11.85,3.220045427
11.86,3.294,11.86,3.204294902,11.86,3.2320295
11.87,3.289,11.87,3.057294902,11.87,3.235005854
11.88,3.286,11.88,2.998,11.88,3.232970448
11.89,3.285,11.89,3.054294902,11.89,3.231927071
11.9,3.297,11.9,3.211294902,11.9,3.238851882
11.91,3.3,11.91,3.395705098,11.91,3.237828183
11.92,3.298,11.92,3.538705098,11.92,3.230844089
11.93,3.297,11.93,3.6,11.93,3.234836157
11.94,3.304,11.94,3.542705098,11.94,3.234824213
11.95,3.303,11.95,3.381705098,11.95,3.223883544
11.96,3.296,11.96,3.198294902,11.96,3.225930947
11.97,3.3,11.97,3.039294902,11.97,3.21698619
11.98,3.3,11.98,2.988,11.98,3.223033488
11.99,3.289,11.99,3.049294902,11.99,3.227065104
12,3.291,12,3.185294902,12,3.213108659
12.01,3.282,12.01,3.376705098,12.01,3.219136329
12.02,3.288,12.02,3.531705098,12.02,3.224108531
12.03,3.292,12.03,3.583,12.03,3.21812831
12.04,3.278,12.04,3.535705098,12.04,3.228124437
12.05,3.284,12.05,3.384705098,12.05,3.227069114
12.06,3.289,12.06,3.186294902,12.06,3.214088963
12.07,3.283,12.07,3.038294902,12.07,3.216120563
12.08,3.293,12.08,2.99,12.08,3.225092683
12.09,3.292,12.09,3.055294902,12.09,3.233072903
12.1,3.279,12.1,3.201294902,12.1,3.22906524
12.11,3.281,12.11,3.383705098,12.11,3.226017925
12.12,3.29,12.12,3.543705098,12.12,3.235938782
12.13,3.298,12.13,3.591,12.13,3.225934841
12.14,3.294,12.14,3.527705098,12.14,3.219986282
12.15,3.291,12.15,3.384705098,12.15,3.226994087
12.16,3.301,12.16,3.201294902,12.16,3.228982098
12.17,3.291,12.17,3.053294902,12.17,3.231001954
12.18,3.285,12.18,2.991,12.18,3.226002079
12.19,3.292,12.19,3.053294902,12.19,3.23095855
12.2,3.294,12.2,3.189294902,12.2,3.216998108
12.21,3.296,12.21,3.379705098,12.21,3.222025672
12.22,3.291,12.22,3.536705098,12.22,3.229033491
12.23,3.296,12.23,3.601,12.23,3.235993935
12.24,3.282,12.24,3.532705098,12.24,3.225017912
12.25,3.287,12.25,3.378705098,12.25,3.221002133
12.26,3.294,12.26,3.194294902,12.26,3.222001992
12.27,3.301,12.27,3.050294902,12.27,3.228005786
12.28,3.29,12.28,2.991,12.28,3.226045399
12.29,3.286,12.29,3.048294902,12.29,3.226041522
12.3,3.287,12.3,3.195294902,12.3,3.223033639
12.31,3.293,12.31,3.384705098,12.31,3.2270138
12.32,3.291,12.32,3.526705098,12.32,3.219049406
12.33,3.291,12.33,3.588,12.33,3.223061217
12.34,3.288,12.34,3.539705098,12.34,3.232037451
12.35,3.292,12.35,3.382705098,12.35,3.22502961
12.36,3.284,12.36,3.195294902,12.36,3.223045537
12.37,3.288,12.37,3.028294902,12.37,3.206096926
12.38,3.297,12.38,2.938,12.38,3.173294439
12.39,3.29,12.39,3.016294902,12.39,3.194444161
12.4,3.288,12.4,3.323294902,12.4,3.35094529
12.41,3.271,12.41,3.581705098,12.41,3.423151803
12.42,3.238,12.42,3.572705098,12.42,3.263921672
12.43,3.259,12.43,3.453,12.43,3.087258786
12.44,3.416,12.44,3.397705098,12.44,3.089666564
12.45,3.489,12.45,3.311705098,12.45,3.15444175
12.46,3.33,12.46,3.186294902,12.46,3.215271701
12.47,3.153,12.47,3.059294902,12.47,3.238384261
12.48,3.155,12.48,2.999,12.48,3.234808406
12.49,3.219,12.49,3.060294902,12.49,3.238223718
12.5,3.279,12.5,3.215294902,12.5,3.242871781
12.51,3.302,12.51,3.390705098,12.51,3.23279667
12.52,3.299,12.52,3.556705098,12.52,3.248749206
12.53,3.303,12.53,3.597,12.53,3.231757189
12.54,3.308,12.54,3.529705098,12.54,3.22182043
12.55,3.298,12.55,3.376705098,12.55,3.218915192
12.56,3.314,12.56,3.199294902,12.56,3.226938568
12.57,3.297,12.57,3.046294902,12.57,3.224037435
12.58,3.287,12.58,2.982,12.58,3.217096841
12.59,3.284,12.59,3.039294902,12.59,3.217116585
12.6,3.292,12.6,3.201294902,12.6,3.229076885
12.61,3.289,12.61,3.394705098,12.61,3.237037388
12.62,3.282,12.62,3.544705098,12.62,3.236986226
12.63,3.282,12.63,3.604,12.63,3.238899425
12.64,3.294,12.64,3.554705098,12.64,3.246780828
12.65,3.302,12.65,3.403705098,12.65,3.24571368
12.66,3.302,12.66,3.206294902,12.66,3.233725672
12.67,3.304,12.67,3.052294902,12.67,3.229753297
12.68,3.312,12.68,2.985,12.68,3.219828227
12.69,3.311,12.69,3.040294902,12.69,3.217942673
12.7,3.299,12.7,3.184294902,12.7,3.212076988
12.71,3.295,12.71,3.370705098,12.71,3.21315988
12.72,3.285,12.72,3.525705098,12.72,3.21820727
12.73,3.283,12.73,3.596,12.73,3.231163765
12.74,3.277,12.74,3.530705098,12.74,3.223144212
12.75,3.278,12.75,3.380705098,12.75,3.223100845
12.76,3.283,12.76,3.195294902,12.76,3.22306129
12.77,3.296,12.77,3.055294902,12.77,3.233001856
12.78,3.288,12.78,2.995,12.78,3.230005928
12.79,3.288,12.79,3.054294902,12.79,3.231970435
12.8,3.288,12.8,3.193294902,12.8,3.220978423
12.81,3.298,12.81,3.366705098,12.81,3.209033678
12.82,3.295,12.82,3.531705098,12.82,3.224069019
12.83,3.297,12.83,3.596,12.83,3.231064942
12.84,3.286,12.84,3.536705098,12.84,3.229076996
12.85,3.274,12.85,3.375705098,12.85,3.218089104
12.86,3.289,12.86,3.195294902,12.86,3.223033623
12.87,3.296,12.87,3.046294902,12.87,3.224033491
12.88,3.294,12.88,2.994,12.88,3.229041381
12.89,3.283,12.89,3.051294902,12.89,3.22904151
12.9,3.288,12.9,3.200294902,12.9,3.228002025
12.91,3.289,12.91,3.383705098,12.91,3.225990194
12.92,3.294,12.92,3.535705098,12.92,3.227974328
12.93,3.294,12.93,3.592,12.93,3.226982223
12.94,3.293,12.94,3.531705098,12.94,3.224002003
12.95,3.291,12.95,3.384705098,12.95,3.227005935
12.96,3.293,12.96,3.206294902,12.96,3.233974263
12.97,3.292,12.97,3.051294902,12.97,3.228970397
12.98,3.289,12.98,2.995,12.98,3.229958609
12.99,3.292,12.99,3.048294902,12.99,3.2259507
13,3.299,13,3.203294902,13,3.230934791
13.01,3.294,13.01,3.383705098,13.01,3.22596645
13.02,3.295,13.02,3.520705098,13.02,3.213029725
13.03,3.291,13.03,3.59,13.03,3.225049348
13.04,3.296,13.04,3.541705098,13.04,3.234017587
13.05,3.291,13.05,3.385705098,13.05,3.228029603
13.06,3.278,13.06,3.197294902,13.06,3.225033757
13.07,3.29,13.07,3.045294902,13.07,3.222994151
13.08,3.299,13.08,2.988,13.08,3.22300193
13.09,3.293,13.09,3.037294902,13.09,3.215077044
13.1,3.29,13.1,3.163294902,13.1,3.191223315
13.11,3.288,13.11,3.323705098,13.11,3.166456353
13.12,3.288,13.12,3.506705098,13.12,3.199550609
13.13,3.28,13.13,3.738,13.13,3.372956975
13.14,3.256,13.14,3.726705098,13.14,3.418152059
13.15,3.231,13.15,3.420705098,13.15,3.261870563
13.16,3.264,13.16,3.073294902,13.16,3.100128352
13.17,3.438,13.17,2.919294902,13.17,3.096528137
13.18,3.484,13.18,2.927,13.18,3.162358922
13.19,3.328,13.19,3.028294902,13.19,3.207200807
13.2,3.166,13.2,3.204294902,13.2,3.233325003
13.21,3.162,13.21,3.401705098,13.21,3.244760835
13.22,3.227,13.22,3.543705098,13.22,3.236211797
13.23,3.271,13.23,3.599,13.23,3.233927249
13.24,3.297,13.24,3.539705098,13.24,3.231824341
13.25,3.309,13.25,3.386705098,13.25,3.228836067
13.26,3.301,13.26,3.200294902,13.26,3.227899293
13.27,3.299,13.27,3.044294902,13.27,3.221954607
13.28,3.297,13.28,2.978,13.28,3.213037578
13.29,3.294,13.29,3.049294902,13.29,3.22705717
13.3,3.293,13.3,3.193294902,13.3,3.221088782
13.31,3.287,13.31,3.381705098,13.31,3.224104663
13.32,3.278,13.32,3.534705098,13.32,3.227084975
13.33,3.292,13.33,3.588,13.33,3.223045415
13.34,3.286,13.34,3.542705098,13.34,3.235013803
13.35,3.289,13.35,3.398705098,13.35,3.240934779
13.36,3.292,13.36,3.224294902,13.36,3.251824204
13.37,3.288,13.37,3.069294902,13.37,3.246745408
13.38,3.3,13.38,3.012,13.38,3.246650611
13.39,3.306,13.39,3.060294902,13.39,3.237638771
13.4,3.317,13.4,3.206294902,13.4,3.233666305
13.41,3.312,13.41,3.377705098,13.41,3.219792733
13.42,3.312,13.42,3.517705098,13.42,3.209938812
13.43,3.303,13.43,3.577,13.43,3.212076937
13.44,3.299,13.44,3.529705098,13.44,3.22213998
13.45,3.285,13.45,3.376705098,13.45,3.219199376
13.46,3.275,13.46,3.186294902,13.46,3.214223255
13.47,3.277,13.47,3.053294902,13.47,3.231140177
13.48,3.287,13.48,3.002,13.48,3.237041344
13.49,3.284,13.49,3.046294902,13.49,3.224033695
13.5,3.279,13.5,3.192294902,13.5,3.220029858
13.51,3.296,13.51,3.375705098,13.51,3.218013842
13.52,3.302,13.52,3.535705098,13.52,3.228025498
13.53,3.289,13.53,3.577,13.53,3.212124454
13.54,3.285,13.54,3.533705098,13.54,3.2261165
13.55,3.283,13.55,3.387705098,13.55,3.230076959
13.56,3.293,13.56,3.201294902,13.56,3.229033519
13.57,3.277,13.57,3.048294902,13.57,3.226041633
13.58,3.291,13.58,2.991,13.58,3.225986224
13.59,3.295,13.59,3.040294902,13.59,3.218017815
13.6,3.294,13.6,3.205294902,13.6,3.233005833
13.61,3.291,13.61,3.392705098,13.61,3.234982146
13.62,3.291,13.62,3.536705098,13.62,3.228970437
13.63,3.283,13.63,3.587,13.63,3.221986381
13.64,3.298,13.64,3.529705098,13.64,3.221970397
13.65,3.3,13.65,3.378705098,13.65,3.221017708
13.66,3.294,13.66,3.204294902,13.66,3.232029505
13.67,3.287,13.67,3.048294902,13.67,3.226041485
13.68,3.287,13.68,2.988,13.68,3.223037613
13.69,3.286,13.69,3.043294902,13.69,3.221041559
13.7,3.297,13.7,3.200294902,13.7,3.228013731
13.71,3.291,13.71,3.386705098,13.71,3.229025623
13.72,3.288,13.72,3.537705098,13.72,3.230009894
13.73,3.286,13.73,3.584,13.73,3.219025813
13.74,3.293,13.74,3.530705098,13.74,3.2230178
13.75,3.294,13.75,3.382705098,13.75,3.225029561
13.76,3.295,13.76,3.197294902,13.76,3.225045356
13.77,3.284,13.77,3.059294902,13.77,3.237017745
13.78,3.288,13.78,2.995,13.78,3.229974371
13.79,3.29,13.79,3.051294902,13.79,3.22895073
13.8,3.29,13.8,3.196294902,13.8,3.223954691
13.81,3.302,13.81,3.372705098,13.81,3.214994101
13.82,3.295,13.82,3.530705098,13.82,3.223049317
13.83,3.294,13.83,3.588,13.83,3.223076918
13.84,3.289,13.84,3.520705098,13.84,3.213140248
13.85,3.28,13.85,3.336705098,13.85,3.179318251
13.86,3.288,13.86,3.145294902,13.86,3.173483889
13.87,3.288,13.87,3.091294902,13.87,3.269301262
13.88,3.278,13.88,3.192,13.88,3.426494852
13.89,3.244,13.89,3.197294902,13.89,3.37385702
13.9,3.238,13.9,3.132294902,13.9,3.158934837
13.91,3.334,13.91,3.232705098,13.91,3.074320908
13.92,3.492,13.92,3.423705098,13.92,3.115921492
13.93,3.44,13.93,3.542,13.93,3.177907692
13.94,3.225,13.94,3.524705098,13.94,3.218533418
13.95,3.14,13.95,3.394705098,13.95,3.238230607
13.96,3.181,13.96,3.209294902,13.96,3.23759106
13.97,3.242,13.97,3.061294902,13.97,3.23910507
13.98,3.282,13.98,3.012,13.98,3.246828315
13.99,3.302,13.99,3.057294902,13.99,3.234757196
14,3.302,14,3.210294902,14,3.237753247
14.01,3.304,14.01,3.395705098,14.01,3.237749226
14.02,3.312,14.02,3.528705098,14.02,3.220820351
14.03,3.3,14.03,3.572,14.03,3.206978454
14.04,3.303,14.04,3.525705098,14.04,3.21804531
14.05,3.303,14.05,3.383705098,14.05,3.226092534
14.06,3.286,14.06,3.191294902,14.06,3.219167826
14.07,3.272,14.07,3.043294902,14.07,3.22116799
14.08,3.283,14.08,2.986,14.08,3.221112591
14.09,3.291,14.09,3.039294902,14.09,3.217116498
14.1,3.284,14.1,3.217294902,14.1,3.245041319
14.11,3.286,14.11,3.414705098,14.11,3.256891228
14.12,3.286,14.12,3.562705098,14.12,3.254757214
14.13,3.282,14.13,3.599,14.13,3.233706213
14.14,3.31,14.14,3.543705098,14.14,3.235630879
14.15,3.322,14.15,3.395705098,14.15,3.237658257
14.16,3.32,14.16,3.204294902,14.16,3.231757006
14.17,3.299,14.17,3.036294902,14.17,3.213919213
14.18,3.301,14.18,2.986,14.18,3.220970381
14.19,3.303,14.19,3.045294902,14.19,3.223021565
14.2,3.297,14.2,3.194294902,14.2,3.222084815
14.21,3.279,14.21,3.376705098,14.21,3.219136351
14.22,3.286,14.22,3.525705098,14.22,3.218120492
14.23,3.288,14.23,3.585,14.23,3.220124382
14.24,3.287,14.24,3.528705098,14.24,3.221132273
14.25,3.284,14.25,3.382705098,14.25,3.225120438
14.26,3.283,14.26,3.193294902,14.26,3.221112604
14.27,3.285,14.27,3.041294902,14.27,3.21910867
14.28,3.286,14.28,2.993,14.28,3.228076981
14.29,3.29,14.29,3.050294902,14.29,3.228049312
14.3,3.286,14.3,3.195294902,14.3,3.223057339
14.31,3.284,14.31,3.383705098,14.31,3.226037595
14.32,3.293,14.32,3.531705098,14.32,3.224017764
14.33,3.293,14.33,3.596,14.33,3.231005869
14.34,3.288,14.34,3.545705098,14.34,3.23796639
14.35,3.291,14.35,3.388705098,14.35,3.230934894
14.36,3.289,14.36,3.190294902,14.36,3.217966638
14.37,3.296,14.37,3.048294902,14.37,3.225958547
14.38,3.303,14.38,2.995,14.38,3.229962325
14.39,3.296,14.39,3.037294902,14.39,3.215053353
14.4,3.283,14.4,3.194294902,14.4,3.222088949
14.41,3.291,14.41,3.389705098,14.41,3.232033453
14.42,3.295,14.42,3.537705098,14.42,3.230017685
14.43,3.28,14.43,3.587,14.43,3.222049542
14.44,3.287,14.44,3.535705098,14.44,3.227998088
14.45,3.297,14.45,3.388705098,14.45,3.230962401
14.46,3.295,14.46,3.196294902,14.46,3.223994092
14.47,3.287,14.47,3.035294902,14.47,3.213061381
14.48,3.293,14.48,2.983,14.48,3.21807701
14.49,3.296,14.49,3.055294902,14.49,3.233057053
14.5,3.289,14.5,3.209294902,14.5,3.23703345
14.51,3.278,14.51,3.385705098,14.51,3.228017946
14.52,3.283,14.52,3.524705098,14.52,3.217002223
14.53,3.298,14.53,3.581,14.53,3.216009909
14.54,3.302,14.54,3.530705098,14.54,3.223049209
14.55,3.293,14.55,3.390705098,14.55,3.233064997
14.56,3.282,14.56,3.199294902,14.56,3.227069164
14.57,3.281,14.57,3.057294902,14.57,3.234998104
14.58,3.288,14.58,2.988,14.58,3.2229705
14.59,3.298,14.59,3.054294902,14.59,3.231934812
14.6,3.292,14.6,3.201294902,14.6,3.228950645
14.61,3.3,14.61,3.378705098,14.61,3.220974352
14.62,3.288,14.62,3.488705098,14.62,3.181187951
14.63,3.297,14.63,3.521,14.63,3.156452424
14.64,3.294,14.64,3.549705098,14.64,3.242411949
14.65,3.286,14.65,3.571705098,14.65,3.413680263
14.66,3.246,14.66,3.365294902,14.66,3.392002699
14.67,3.221,14.67,3.010294902,14.67,3.186978117
14.68,3.307,14.68,2.829,14.68,3.063341151
14.69,3.479,14.69,2.932294902,14.69,3.109858671
14.7,3.458,14.7,3.150294902,14.7,3.178789039
14.71,3.253,14.71,3.381705098,14.71,3.225458037
14.72,3.129,14.72,3.541705098,14.72,3.235278123
14.73,3.175,14.73,3.607,14.73,3.242575321
14.74,3.243,14.74,3.552705098,14.74,3.245041851
14.75,3.289,14.75,3.398705098,14.75,3.240792809
14.76,3.299,14.76,3.207294902,14.76,3.234749359
14.77,3.307,14.77,3.044294902,14.77,3.221796729
14.78,3.31,14.78,2.987,14.78,3.221875582
14.79,3.306,14.79,3.053294902,14.79,3.230930727
14.8,3.3,14.8,3.196294902,14.8,3.223997956
14.81,3.287,14.81,3.376705098,14.81,3.219061323
14.82,3.287,14.82,3.536705098,14.82,3.229033564
14.83,3.296,14.83,3.582,14.83,3.217053301
14.84,3.289,14.84,3.523705098,14.84,3.216112616
14.85,3.284,14.85,3.376705098,14.85,3.219132317
14.86,3.294,14.86,3.212294902,14.86,3.240049129
14.87,3.282,14.87,3.063294902,14.87,3.241001929
14.88,3.281,14.88,3.01,14.88,3.244891502
14.89,3.284,14.89,3.072294902,14.89,3.249757255
14.9,3.305,14.9,3.213294902,14.9,3.240670317
14.91,3.306,14.91,3.390705098,14.91,3.232698023
14.92,3.31,14.92,3.536705098,14.92,3.228745324
14.93,3.315,14.93,3.588,14.93,3.222832106
14.94,3.306,14.94,3.519705098,14.94,3.211982247
14.95,3.298,14.95,3.369705098,14.95,3.212096739
14.96,3.294,14.96,3.187294902,14.96,3.215167736
14.97,3.288,14.97,3.049294902,14.97,3.227175581
14.98,3.277,14.98,2.989,14.98,3.224171809
14.99,3.277,14.99,3.043294902,14.99,3.221136374
15,3.28,15,3.201294902,15,3.22906916
15.01,3.292,15.01,3.383705098,15.01,3.226025642
15.02,3.289,15.02,3.527705098,15.02,3.220053391
15.03,3.286,15.03,3.577,15.03,3.212100838
15.04,3.294,15.04,3.521705098,15.04,3.21412832
15.05,3.291,15.05,3.370705098,15.05,3.213191468
15.06,3.285,15.06,3.207294902,15.06,3.235155812
15.07,3.277,15.07,3.071294902,15.07,3.249041336
15.08,3.279,15.08,2.997,15.08,3.231962668
15.09,3.278,15.09,3.053294902,15.09,3.230895651
15.1,3.3,15.1,3.200294902,15.1,3.227836165
15.11,3.314,15.11,3.390705098,15.11,3.232843848
15.12,3.297,15.12,3.535705098,15.12,3.227926946
15.13,3.296,15.13,3.584,15.13,3.218978365
15.14,3.293,15.14,3.530705098,15.14,3.223009898
15.15,3.298,15.15,3.387705098,15.15,3.230001845
15.16,3.293,15.16,3.199294902,15.16,3.227025632
15.17,3.284,15.17,3.037294902,15.17,3.215077178
15.18,3.288,15.18,2.992,15.18,3.227045422
15.19,3.295,15.19,3.055294902,15.19,3.23300578
15.2,3.292,15.2,3.204294902,15.2,3.231997991
15.21,3.28,15.21,3.388705098,15.21,3.230982373
15.22,3.292,15.22,3.530705098,15.22,3.222950744
15.23,3.298,15.23,3.59,15.23,3.224958539
15.24,3.297,15.24,3.526705098,15.24,3.219013822
15.25,3.296,15.25,3.373705098,15.25,3.216077007
15.26,3.288,15.26,3.203294902,15.26,3.231076918
15.27,3.29,15.27,3.048294902,15.27,3.226065106
15.28,3.284,15.28,2.992,15.28,3.227057334
15.29,3.281,15.29,3.051294902,15.29,3.229017862
15.3,3.296,15.3,3.198294902,15.3,3.22597827
15.31,3.291,15.31,3.380705098,15.31,3.223009931
15.32,3.292,15.32,3.527705098,15.32,3.22003361
15.33,3.294,15.33,3.587,15.33,3.222053284
15.34,3.291,15.34,3.532705098,15.34,3.225069061
15.35,3.288,15.35,3.385705098,15.35,3.228061184
15.36,3.285,15.36,3.195294902,15.36,3.223061282
15.37,3.287,15.37,3.049294902,15.37,3.227033606
15.38,3.29,15.38,2.999,15.38,3.23398613
15.39,3.293,15.39,3.046294902,15.39,3.223990166
15.4,3.288,15.4,3.181294902,15.4,3.209065369
15.41,3.292,15.41,3.352705098,15.41,3.195175898
15.42,3.299,15.42,3.480705098,15.42,3.173389053
15.43,3.289,15.43,3.585,15.43,3.220443869
15.44,3.274,15.44,3.700705098,15.44,3.392775368
15.45,3.26,15.45,3.566705098,15.45,3.407986484
15.46,3.238,15.46,3.188294902,15.46,3.214906543
15.47,3.285,15.47,2.900294902,15.47,3.077282161
15.48,3.458,15.48,2.862,15.48,3.096764458
15.49,3.474,15.49,2.991294902,15.49,3.169646937
15.5,3.281,15.5,3.193294902,15.5,3.222390604
15.51,3.143,15.51,3.395705098,15.51,3.239305511
15.52,3.162,15.52,3.548705098,15.52,3.241662282
15.53,3.234,15.53,3.616,15.53,3.251053747
15.54,3.286,15.54,3.560705098,15.54,3.252721692
15.55,3.303,15.55,3.392705098,15.55,3.234666481
15.56,3.306,15.56,3.196294902,15.56,3.223721796
15.57,3.316,15.57,3.060294902,15.57,3.237733296
15.58,3.318,15.58,2.988,15.58,3.222843879
15.59,3.3,15.59,3.039294902,15.59,3.216986252
15.6,3.289,15.6,3.198294902,15.6,3.226021726
15.61,3.303,15.61,3.378705098,15.61,3.221033442
15.62,3.288,15.62,3.525705098,15.62,3.218112598
15.63,3.282,15.63,3.59,15.63,3.225104677
15.64,3.291,15.64,3.532705098,15.64,3.225073001
15.65,3.286,15.65,3.375705098,15.65,3.218104726
15.66,3.283,15.66,3.210294902,15.66,3.238037471
15.67,3.29,15.67,3.075294902,15.67,3.252899114
15.68,3.29,15.68,3.017,15.68,3.25179268
15.69,3.283,15.69,3.057294902,15.69,3.234753527
15.7,3.303,15.7,3.200294902,15.7,3.227713893
15.71,3.318,15.71,3.381705098,15.71,3.223768931
15.72,3.317,15.72,3.540705098,15.72,3.232847744
15.73,3.3,15.73,3.585,15.73,3.219974328
15.74,3.293,15.74,3.516705098,15.74,3.209077145
15.75,3.289,15.75,3.370705098,15.75,3.213136274
15.76,3.298,15.76,3.188294902,15.76,3.21616767
15.77,3.285,15.77,3.031294902,15.77,3.209262613
15.78,3.274,15.78,2.99,15.78,3.225242854
15.79,3.278,15.79,3.056294902,15.79,3.234144047
15.8,3.281,15.8,3.203294902,15.8,3.231073093
15.81,3.274,15.81,3.383705098,15.81,3.226033793
15.82,3.29,15.82,3.531705098,15.82,3.223974425
15.83,3.299,15.83,3.592,15.83,3.226966379
15.84,3.296,15.84,3.540705098,15.84,3.232970294
15.85,3.291,15.85,3.381705098,15.85,3.22399808
15.86,3.289,15.86,3.197294902,15.86,3.225002057
15.87,3.292,15.87,3.041294902,15.87,3.219021774
15.88,3.298,15.88,2.992,15.88,3.227021629
15.89,3.289,15.89,3.049294902,15.89,3.227045385
15.9,3.29,15.9,3.200294902,15.9,3.228029617
15.91,3.284,15.91,3.378705098,15.91,3.221045536
15.92,3.292,15.92,3.539705098,15.92,3.231994038
15.93,3.292,15.93,3.589,15.93,3.224005933
15.94,3.293,15.94,3.525705098,15.94,3.21804154
15.95,3.286,15.95,3.379705098,15.95,3.222065213
15.96,3.297,15.96,3.204294902,15.96,3.232021562
15.97,3.289,15.97,3.057294902,15.97,3.235009809
15.98,3.283,15.98,2.996,15.98,3.230982339
15.99,3.287,15.99,3.048294902,15.99,3.225950783
16,3.297,16,3.193294902,16,3.220954646
16.01,3.3,16.01,3.388705098,16.01,3.230958434
16.02,3.296,16.02,3.538705098,16.02,3.230974249
16.03,3.291,16.03,3.588,16.03,3.223005999
16.04,3.286,16.04,3.525705098,16.04,3.218037665
16.05,3.296,16.05,3.373705098,16.05,3.216057265
16.06,3.296,16.06,3.192294902,16.06,3.22010061
16.07,3.288,16.07,3.046294902,16.07,3.224128278
16.08,3.283,16.08,2.995,16.08,3.230100672
16.09,3.281,16.09,3.052294902,16.09,3.230053362
16.1,3.285,16.1,3.184294902,16.1,3.212069307
16.11,3.289,16.11,3.375705098,16.11,3.21807708
16.12,3.295,16.12,3.537705098,16.12,3.230053142
16.13,3.295,16.13,3.594,16.13,3.229057138
16.14,3.277,16.14,3.538705098,16.14,3.231053423
16.15,3.283,16.15,3.383705098,16.15,3.225998155
16.16,3.295,16.16,3.201294902,16.16,3.22895459
16.17,3.294,16.17,3.045294902,16.17,3.222982263
16.18,3.296,16.18,2.947,16.18,3.182168124
16.19,3.291,16.19,2.998294902,16.19,3.176385218
16.2,3.294,16.2,3.238294902,16.2,3.266226263
16.21,3.288,16.21,3.555705098,16.21,3.397558176
16.22,3.247,16.22,3.662705098,16.22,3.35403867
16.23,3.241,16.23,3.53,16.23,3.16410824
16.24,3.331,16.24,3.389705098,16.24,3.081478637
16.25,3.463,16.25,3.295705098,16.25,3.13798082
16.26,3.42,16.26,3.160294902,16.26,3.188809199
16.27,3.23,16.27,3.035294902,16.27,3.214371716
16.28,3.147,16.28,2.983,16.28,3.219163674
16.29,3.203,16.29,3.061294902,16.29,3.239543408
16.3,3.253,16.3,3.225294902,16.3,3.253088942
16.31,3.278,16.31,3.397705098,16.31,3.239883698
16.32,3.283,16.32,3.546705098,16.32,3.238781101
16.33,3.304,16.33,3.591,16.33,3.225749366
16.34,3.318,16.34,3.536705098,16.34,3.22878863
16.35,3.305,16.35,3.380705098,16.35,3.222907163
16.36,3.304,16.36,3.201294902,16.36,3.228950533
16.37,3.291,16.37,3.053294902,16.37,3.230982204
16.38,3.294,16.38,2.988,16.38,3.222994118
16.39,3.288,16.39,3.035294902,16.39,3.213057423
16.4,3.294,16.4,3.195294902,16.4,3.223057214
16.41,3.296,16.41,3.389705098,16.41,3.232045229
16.42,3.288,16.42,3.538705098,16.42,3.231045381
16.43,3.278,16.43,3.608,16.43,3.242966488
16.44,3.288,16.44,3.554705098,16.44,3.246832172
16.45,3.297,16.45,3.409705098,16.45,3.251717641
16.46,3.296,16.46,3.206294902,16.46,3.233709958
16.47,3.308,16.47,3.048294902,16.47,3.225729642
16.48,3.312,16.48,2.988,16.48,3.222808463
16.49,3.317,16.49,3.046294902,16.49,3.223899124
16.5,3.299,16.5,3.193294902,16.5,3.221021672
16.51,3.291,16.51,3.366705098,16.51,3.209120536
16.52,3.288,16.52,3.511705098,16.52,3.204207411
16.53,3.289,16.53,3.58,16.53,3.215238803
16.54,3.286,16.54,3.543705098,16.54,3.236191264
16.55,3.274,16.55,3.394705098,16.55,3.237128315
16.56,3.269,16.56,3.204294902,16.56,3.232037751
16.57,3.28,16.57,3.053294902,16.57,3.23093109
16.58,3.301,16.58,2.993,16.58,3.227879563
16.59,3.302,16.59,3.043294902,16.59,3.220938808
16.6,3.297,16.6,3.195294902,16.6,3.222994071
16.61,3.296,16.61,3.377705098,16.61,3.220041436
16.62,3.293,16.62,3.526705098,16.62,3.219088841
16.63,3.286,16.63,3.589,16.63,3.224104639
16.64,3.288,16.64,3.537705098,16.64,3.230069042
16.65,3.285,16.65,3.391705098,16.65,3.234025656
16.66,3.284,16.66,3.203294902,16.66,3.230982318
16.67,3.289,16.67,3.044294902,16.67,3.221970527
16.68,3.295,16.68,2.985,16.68,3.219986244
16.69,3.299,16.69,3.044294902,16.69,3.222017708
16.7,3.296,16.7,3.187294902,16.7,3.215092781
16.71,3.287,16.71,3.385705098,16.71,3.228104595
16.72,3.285,16.72,3.539705098,16.72,3.232065095
16.73,3.287,16.73,3.597,16.73,3.232017781
16.74,3.28,16.74,3.547705098,16.74,3.239946765
16.75,3.293,16.75,3.388705098,16.75,3.230883576
16.76,3.297,16.76,3.191294902,16.76,3.218919195
16.77,3.297,16.77,3.036294902,16.77,3.213990224
16.78,3.305,16.78,2.987,16.78,3.222029462
16.79,3.296,16.79,3.053294902,16.79,3.231064974
16.8,3.284,16.8,3.203294902,16.8,3.23106515
16.81,3.279,16.81,3.380705098,16.81,3.223049539
16.82,3.287,16.82,3.532705098,16.82,3.225006015
16.83,3.296,16.83,3.592,16.83,3.226986131
16.84,3.296,16.84,3.526705098,16.84,3.219033575
16.85,3.288,16.85,3.374705098,16.85,3.217088932
16.86,3.29,16.86,3.191294902,16.86,3.219104637
16.87,3.292,16.87,3.053294902,16.87,3.231080814
16.88,3.284,16.88,2.996,16.88,3.231065137
16.89,3.282,16.89,3.046294902,16.89,3.22404555
16.9,3.284,16.9,3.202294902,16.9,3.229994162
16.91,3.296,16.91,3.386705098,16.91,3.22895455
16.92,3.296,16.92,3.518705098,16.92,3.211033678
16.93,3.289,16.93,3.535,16.93,3.170274856
16.94,3.295,16.94,3.493705098,16.94,3.186424473
16.95,3.294,16.95,3.480705098,16.95,3.323055971
16.96,3.276,16.96,3.384294902,16.96,3.411333332
16.97,3.235,16.97,3.115294902,16.97,3.292012057
16.98,3.251,16.98,2.874,16.98,3.108254694
16.99,3.388,16.99,2.912294902,16.99,3.089631503
17,3.477,17,3.132294902,17,3.160272229
17.01,3.358,17.01,3.366705098,17.01,3.210074133
17.02,3.174,17.02,3.534705098,17.02,3.228336796
17.03,3.155,17.03,3.597,17.03,3.232851803
17.04,3.225,17.04,3.539705098,17.04,3.232290749
17.05,3.274,17.05,3.393705098,17.05,3.235990278
17.06,3.292,17.06,3.209294902,17.06,3.236879579
17.07,3.297,17.07,3.065294902,17.07,3.242816345
17.08,3.297,17.08,3,17.08,3.234804594
17.09,3.301,17.09,3.041294902,17.09,3.218856028
17.1,3.302,17.1,3.178294902,17.1,3.20597448
17.11,3.308,17.11,3.374705098,17.11,3.217053148
17.12,3.3,17.12,3.539705098,17.12,3.232096449
17.13,3.284,17.13,3.597,17.13,3.232108528
17.14,3.271,17.14,3.539705098,17.14,3.232057437
17.15,3.282,17.15,3.384705098,17.15,3.226974493
17.16,3.297,17.16,3.193294902,17.16,3.220958598
17.17,3.297,17.17,3.057294902,17.17,3.234946594
17.18,3.297,17.18,3.009,17.18,3.243899136
17.19,3.292,17.19,3.075294902,17.19,3.252816304
17.2,3.286,17.2,3.219294902,17.2,3.246737552
17.21,3.3,17.21,3.393705098,17.21,3.235678347
17.22,3.309,17.22,3.537705098,17.22,3.229698
17.23,3.318,17.23,3.584,17.23,3.21879661
17.24,3.312,17.24,3.526705098,17.24,3.218930812
17.25,3.301,17.25,3.371705098,17.25,3.214061158
17.26,3.295,17.26,3.191294902,17.26,3.219128258
17.27,3.284,17.27,3.050294902,17.27,3.228136165
17.28,3.284,17.28,2.992,17.28,3.227104636
17.29,3.279,17.29,3.039294902,17.29,3.217112721
17.3,3.284,17.3,3.183294902,17.3,3.211124549
17.31,3.293,17.31,3.368705098,17.31,3.211155969
17.32,3.292,17.32,3.525705098,17.32,3.218195348
17.33,3.282,17.33,3.591,17.33,3.226199332
17.34,3.276,17.34,3.539705098,17.34,3.232140185
17.35,3.276,17.35,3.388705098,17.35,3.231061311
17.36,3.283,17.36,3.201294902,17.36,3.228990247
17.37,3.291,17.37,3.044294902,17.37,3.221974436
17.38,3.297,17.38,2.99,17.38,3.224978272
17.39,3.296,17.39,3.050294902,17.39,3.227994009
17.4,3.294,17.4,3.201294902,17.4,3.229001931
17.41,3.287,17.41,3.383705098,17.41,3.22601389
17.42,3.29,17.42,3.548705098,17.42,3.240938733
17.43,3.293,17.43,3.595,17.43,3.229919076
17.44,3.294,17.44,3.524705098,17.44,3.21696266
17.45,3.291,17.45,3.373705098,17.45,3.216013941
17.46,3.306,17.46,3.194294902,17.46,3.222029443
17.47,3.295,17.47,3.053294902,17.47,3.23106894
17.48,3.282,17.48,2.998,17.48,3.23305726
17.49,3.281,17.49,3.057294902,17.49,3.234986262
17.5,3.287,17.5,3.200294902,17.5,3.227938919
17.51,3.296,17.51,3.380705098,17.51,3.222934926
17.52,3.298,17.52,3.528705098,17.52,3.22097435
17.53,3.3,17.53,3.579,17.53,3.214049351
17.54,3.293,17.54,3.518705098,17.54,3.211144152
17.55,3.288,17.55,3.381705098,17.55,3.22415983
17.56,3.286,17.56,3.200294902,17.56,3.22814008
17.57,3.279,17.57,3.045294902,17.57,3.223132377
17.58,3.276,17.58,2.991,17.58,3.226085038
17.59,3.289,17.59,3.061294902,17.59,3.238974253
17.6,3.293,17.6,3.204294902,17.6,3.231942733
17.61,3.288,17.61,3.380705098,17.61,3.22296266
17.62,3.291,17.62,3.530705098,17.62,3.222962586
17.63,3.304,17.63,3.595,17.63,3.229946549
17.64,3.297,17.64,3.539705098,17.64,3.231974237
17.65,3.288,17.65,3.383705098,17.65,3.225998106
17.66,3.288,17.66,3.188294902,17.66,3.216025831
17.67,3.295,17.67,3.031294902,17.67,3.209081034
17.68,3.297,17.68,2.941,17.68,3.17629438
17.69,3.291,17.69,2.992294902,17.69,3.170539112
17.7,3.281,17.7,3.251294902,17.7,3.279328849
17.71,3.274,17.71,3.584705098,17.71,3.426494891
17.72,3.241,17.72,3.665705098,17.72,3.356908566
17.73,3.235,17.73,3.504,17.73,3.138057393
17.74,3.344,17.74,3.385705098,17.74,3.077419328
17.75,3.492,17.75,3.299705098,17.75,3.141956662
17.76,3.423,17.76,3.170294902,17.76,3.198860356
17.77,3.204,17.77,3.056294902,17.77,3.235352092
17.78,3.143,17.78,3.002,17.78,3.237966284
17.79,3.207,17.79,3.057294902,17.79,3.235346202
17.8,3.263,17.8,3.206294902,17.8,3.233982551
17.81,3.299,17.81,3.375705098,17.81,3.217903377
17.82,3.302,17.82,3.541705098,17.82,3.233903169
17.83,3.3,17.83,3.608,17.83,3.242879367
17.84,3.299,17.84,3.537705098,17.84,3.229899318
17.85,3.283,17.85,3.379705098,17.85,3.221946956
17.86,3.299,17.86,3.193294902,17.86,3.220934884
17.87,3.308,17.87,3.038294902,17.87,3.21600583
17.88,3.295,17.88,2.994,17.88,3.229061085
17.89,3.287,17.89,3.054294902,17.89,3.232053239
17.9,3.286,17.9,3.195294902,17.9,3.223049454
17.91,3.281,17.91,3.374705098,17.91,3.217065358
17.92,3.294,17.92,3.529705098,17.92,3.222041442
17.93,3.297,17.93,3.614,17.93,3.248962198
17.94,3.288,17.94,3.556705098,17.94,3.248895257
17.95,3.282,17.95,3.409705098,17.95,3.251780976
17.96,3.287,17.96,3.214294902,17.96,3.241682363
17.97,3.314,17.97,3.056294902,17.97,3.233634795
17.98,3.314,17.98,2.992,17.98,3.226721628
17.99,3.317,17.99,3.036294902,17.99,3.213859798
18,3.307,18,3.185294902,18,3.213013779
18.01,3.299,18.01,3.377705098,18.01,3.220100556
18.02,3.292,18.02,3.519705098,18.02,3.212187531
18.03,3.279,18.03,3.586,18.03,3.221211289
18.04,3.278,18.04,3.531705098,18.04,3.224171779
18.05,3.285,18.05,3.383705098,18.05,3.226120425
18.06,3.277,18.06,3.202294902,18.06,3.230081026
18.07,3.286,18.07,3.044294902,18.07,3.222041556
18.08,3.289,18.08,2.978,18.08,3.213073192
18.09,3.291,18.09,3.036294902,18.09,3.214112578
18.1,3.295,18.1,3.209294902,18.1,3.23706886
18.11,3.287,18.11,3.397705098,18.11,3.240029482
18.12,3.278,18.12,3.540705098,18.12,3.232986348
18.13,3.279,18.13,3.587,18.13,3.221950935
18.14,3.302,18.14,3.535705098,18.14,3.227895334
18.15,3.305,18.15,3.378705098,18.15,3.220958465
18.16,3.298,18.16,3.196294902,18.16,3.224021674
18.17,3.287,18.17,3.047294902,18.17,3.225053326
18.18,3.293,18.18,2.985,18.18,3.220061216
18.19,3.286,18.19,3.047294902,18.19,3.225073083
18.2,3.289,18.2,3.199294902,18.2,3.227049334
18.21,3.29,18.21,3.388705098,18.21,3.231021686
18.22,3.285,18.22,3.541705098,18.22,3.233986207
18.23,3.29,18.23,3.588,18.23,3.222974442
18.24,3.292,18.24,3.531705098,18.24,3.22397836
18.25,3.296,18.25,3.378705098,18.25,3.221001973
18.26,3.299,18.26,3.193294902,18.26,3.221041406
18.27,3.288,18.27,3.052294902,18.27,3.23005721
18.28,3.289,18.28,2.995,18.28,3.230029583
18.29,3.286,18.29,3.052294902,18.29,3.23000598
18.3,3.286,18.3,3.198294902,18.3,3.225986287
18.31,3.295,18.31,3.390705098,18.31,3.232938761
18.32,3.295,18.32,3.536705098,18.32,3.228942734
18.33,3.295,18.33,3.586,18.33,3.220978358
18.34,3.291,18.34,3.523705098,18.34,3.216033672
18.35,3.298,18.35,3.377705098,18.35,3.220057193
18.36,3.294,18.36,3.190294902,18.36,3.218116431
18.37,3.286,18.37,3.041294902,18.37,3.219155989
18.38,3.281,18.38,2.985,18.38,3.220159972
18.39,3.285,18.39,3.055294902,18.39,3.23309272
18.4,3.283,18.4,3.210294902,18.4,3.238021677
18.41,3.284,18.41,3.375705098,18.41,3.218021925
18.42,3.285,18.42,3.525705098,18.42,3.218025864
18.43,3.298,18.43,3.59,18.43,3.22500583
18.44,3.303,18.44,3.529705098,18.44,3.222049221
18.45,3.283,18.45,3.357705098,18.45,3.200199643
18.46,3.283,18.46,3.150294902,18.46,3.178357674
18.47,3.29,18.47,3.024294902,18.47,3.202420383
18.48,3.287,18.48,3.136,18.48,3.370842533
18.49,3.265,18.49,3.236294902,18.49,3.413084934
18.5,3.243,18.5,3.217294902,18.5,3.243910056
18.51,3.267,18.51,3.239705098,18.51,3.081290262
18.52,3.436,18.52,3.398705098,18.52,3.090725432
18.53,3.479,18.53,3.536,18.53,3.171512701
18.54,3.31,18.54,3.518705098,18.54,3.212315379
18.55,3.147,18.55,3.388705098,18.55,3.232372622
18.56,3.156,18.56,3.210294902,18.56,3.238757035
18.57,3.236,18.57,3.054294902,18.57,3.232199888
18.58,3.276,18.58,3.003,18.58,3.237935017
18.59,3.296,18.59,3.064294902,18.59,3.241812401
18.6,3.303,18.6,3.208294902,18.6,3.235792683
18.61,3.297,18.61,3.383705098,18.61,3.225840214
18.62,3.303,18.62,3.528705098,18.62,3.22088357
18.63,3.307,18.63,3.59,18.63,3.224934738
18.64,3.301,18.64,3.539705098,18.64,3.231974179
18.65,3.291,18.65,3.378705098,18.65,3.221033615
18.66,3.286,18.66,3.184294902,18.66,3.212089028
18.67,3.29,18.67,3.041294902,18.67,3.219096749
18.68,3.297,18.68,2.991,18.68,3.226092623
18.69,3.286,18.69,3.057294902,18.69,3.235080856
18.7,3.277,18.7,3.210294902,18.7,3.238013879
18.71,3.284,18.71,3.394705098,18.71,3.236915199
18.72,3.291,18.72,3.546705098,18.72,3.23883619
18.73,3.3,18.73,3.607,18.73,3.241772919
18.74,3.303,18.74,3.550705098,18.74,3.242741318
18.75,3.302,18.75,3.398705098,18.75,3.240729524
18.76,3.304,18.76,3.194294902,18.76,3.221788884
18.77,3.307,18.77,3.045294902,18.77,3.222851955
18.78,3.308,18.78,2.982,18.78,3.216950573
18.79,3.306,18.79,3.042294902,18.79,3.22004133
18.8,3.287,18.8,3.195294902,18.8,3.223112518
18.81,3.288,18.81,3.380705098,18.81,3.223108577
18.82,3.282,18.82,3.536705098,18.82,3.22908492
18.83,3.285,18.83,3.589,18.83,3.224057318
18.84,3.288,18.84,3.523705098,18.84,3.216073171
18.85,3.288,18.85,3.378705098,18.85,3.221080984
18.86,3.294,18.86,3.191294902,18.86,3.219096691
18.87,3.289,18.87,3.047294902,18.87,3.225112494
18.88,3.281,18.88,2.995,18.88,3.230088851
18.89,3.286,18.89,3.046294902,18.89,3.224057317
18.9,3.284,18.9,3.193294902,18.9,3.221057385
18.91,3.29,18.91,3.380705098,18.91,3.223041484
18.92,3.295,18.92,3.527705098,18.92,3.220061179
18.93,3.289,18.93,3.599,18.93,3.234045329
18.94,3.286,18.94,3.545705098,18.94,3.237990074
18.95,3.288,18.95,3.381705098,18.95,3.223978418
18.96,3.285,18.96,3.190294902,18.96,3.217998246
18.97,3.299,18.97,3.037294902,18.97,3.215017783
18.98,3.303,18.98,2.996,18.98,3.231029392
18.99,3.289,18.99,3.050294902,18.99,3.228069039
19,3.283,19,3.200294902,19,3.22805339
19.01,3.28,19.01,3.384705098,19.01,3.227017902
19.02,3.296,19.02,3.536705098,19.02,3.228962459
19.03,3.293,19.03,3.59,19.03,3.224986205
19.04,3.293,19.04,3.532705098,19.04,3.22499805
19.05,3.292,19.05,3.383705098,19.05,3.226005925
19.06,3.294,19.06,3.203294902,19.06,3.23099007
19.07,3.29,19.07,3.046294902,19.07,3.224009923
19.08,3.29,19.08,2.984,19.08,3.219033666
19.09,3.291,19.09,3.047294902,19.09,3.22503356
19.1,3.296,19.1,3.209294902,19.1,3.236989961
19.11,3.289,19.11,3.384705098,19.11,3.22700596
19.12,3.284,19.12,3.524705098,19.12,3.217033782
19.13,3.29,19.13,3.582,19.13,3.217041553
19.14,3.302,19.14,3.525705098,19.14,3.21806899
19.15,3.292,19.15,3.385705098,19.15,3.22810452
19.16,3.282,19.16,3.199294902,19.16,3.227104653
19.17,3.282,19.17,3.045294902,19.17,3.223081059
19.18,3.283,19.18,2.992,19.18,3.227041538
19.19,3.293,19.19,3.048294902,19.19,3.226009853
19.2,3.292,19.2,3.200294902,19.2,3.228009862
19.21,3.288,19.21,3.389705098,19.21,3.231990133
19.22,3.292,19.22,3.535705098,19.22,3.227970409
19.23,3.291,19.23,3.59,19.23,3.224978357
19.24,3.293,19.24,3.534705098,19.24,3.226974348
19.25,3.297,19.25,3.366705098,19.25,3.209049447
19.26,3.293,19.26,3.144294902,19.26,3.172286621
19.27,3.29,19.27,3.023294902,19.27,3.201392804
19.28,3.292,19.28,3.13,19.28,3.364838561
19.29,3.274,19.29,3.243294902,19.29,3.420072919
19.3,3.237,19.3,3.216294902,19.3,3.242937734
19.31,3.266,19.31,3.242705098,19.31,3.084282383
19.32,3.43,19.32,3.399705098,19.32,3.091709701
19.33,3.486,19.33,3.52,19.33,3.155536473
19.34,3.309,19.34,3.514705098,19.34,3.208382505
19.35,3.15,19.35,3.392705098,19.35,3.236419828
19.36,3.157,19.36,3.209294902,19.36,3.23782016
19.37,3.22,19.37,3.055294902,19.37,3.233263212
19.38,3.272,19.38,3.01,19.38,3.244907364
19.39,3.3,19.39,3.062294902,19.39,3.239776871
19.4,3.302,19.4,3.214294902,19.4,3.241749257
19.41,3.298,19.41,3.391705098,19.41,3.233761196
19.42,3.31,19.42,3.529705098,19.42,3.221804593
19.43,3.305,19.43,3.584,19.43,3.218907232
19.44,3.307,19.44,3.529705098,19.44,3.221978156
19.45,3.299,19.45,3.376705098,19.45,3.219069027
19.46,3.287,19.46,3.194294902,19.46,3.222116496
19.47,3.284,19.47,3.052294902,19.47,3.230084869
19.48,3.287,19.48,2.991,19.48,3.226057273
19.49,3.284,19.49,3.045294902,19.49,3.223053422
19.5,3.287,19.5,3.212294902,19.5,3.23997033
19.51,3.295,19.51,3.399705098,19.51,3.241891299
19.52,3.291,19.52,3.558705098,19.52,3.250808463
19.53,3.288,19.53,3.606,19.53,3.240749416
19.54,3.305,19.54,3.541705098,19.54,3.233705921
19.55,3.307,19.55,3.384705098,19.55,3.226757216
19.56,3.316,19.56,3.198294902,19.56,3.22582023
19.57,3.306,19.57,3.042294902,19.57,3.2199427
19.58,3.299,19.58,2.979,19.58,3.214049375
19.59,3.292,19.59,3.042294902,19.59,3.220104608
19.6,3.291,19.6,3.189294902,19.6,3.217144089
19.61,3.285,19.61,3.374705098,19.61,3.217179696
19.62,3.279,19.62,3.530705098,19.62,3.223167851
19.63,3.285,19.63,3.587,19.63,3.22213623
19.64,3.282,19.64,3.533705098,19.64,3.226112573
19.65,3.282,19.65,3.384705098,19.65,3.227073099
19.66,3.288,19.66,3.196294902,19.66,3.224045458
19.67,3.287,19.67,3.045294902,19.67,3.22304548
19.68,3.291,19.68,2.985,19.68,3.220053344
19.69,3.292,19.69,3.059294902,19.69,3.237009751
19.7,3.289,19.7,3.201294902,19.7,3.229001971
19.71,3.288,19.71,3.373705098,19.71,3.21603375
19.72,3.285,19.72,3.538705098,19.72,3.231002017
19.73,3.302,19.73,3.606,19.73,3.240918815
19.74,3.294,19.74,3.533705098,19.74,3.225962537
19.75,3.281,19.75,3.377705098,19.75,3.219998286
19.76,3.296,19.76,3.197294902,19.76,3.224962482
19.77,3.306,19.77,3.048294902,19.77,3.225982071
